46,2005,59,12825,14,425,74,11968,6,1450
74,1933,89,3195,20,408,105,11951,0,1439
105,1904,119,3193,30,407,135,11950,0,1428
135,1897,150,3188,0,376,165,11952,0,1433
165,1876,180,3180,0,398,195,11969,0,1461
195,1885,210,3191,0,399,225,11973,0,1471
225,1912,240,3196,0,424,255,12004,0,1499
255,1948,270,3202,27,407,285,11993,24,1478
285,1990,300,3210,30,405,315,11987,15,1477
315,1968,330,3212,22,391,345,11988,11,1457
345,1904,361,3199,0,384,375,11969,11,1472
375,2218,391,3174,0,399,406,11958,0,1458
406,843,421,3173,0,397,436,11950,0,1436
436,1889,451,3190,0,411,466,11935,1,1461
466,2064,481,3221,5,412,496,11948,0,1463
496,2081,511,3207,7,404,526,11947,0,1471
526,2101,541,3210,23,394,556,11966,0,1488
556,2155,572,3209,11,402,586,11955,18,1465
586,2096,602,3196,0,404,616,11957,21,1468
616,2145,632,3186,0,411,646,11966,2,1455
646,2010,662,3194,0,438,677,11956,1,1452
677,1966,692,3207,5,420,707,11935,0,1429
707,1935,722,3228,31,424,737,11938,3,1431
737,1901,752,3209,19,411,767,11926,0,1425
767,1966,783,3196,12,394,797,12002,0,1446
797,1921,813,3183,0,390,827,11982,0,1445
827,1950,843,3185,0,395,857,11958,0,1461
857,1965,873,3200,0,422,887,11947,23,1452
887,2029,903,3205,0,422,917,11957,19,1447
917,2034,933,3222,19,430,947,11954,14,1439
947,2025,963,3231,3,398,978,11952,1,1444
978,1937,994,3196,0,394,1008,11983,8,1440
1008,2030,1024,3189,0,409,1038,12019,0,1441
1038,2005,1054,3175,0,404,1068,12020,0,1450
1068,2004,1084,3199,0,431,1098,12007,0,1476
1098,2086,1114,3220,5,443,1128,11978,0,1489
1128,2000,1144,3244,7,428,1158,11938,20,1478
1158,2005,1174,3213,8,412,1188,11947,18,1482
1188,2288,1205,3215,20,396,1218,11917,7,1474
1218,1129,1230,3195,31,395,1243,11992,15,1470
1243,1904,1255,3201,64,391,1269,12029,0,1466
1269,2097,1285,3204,0,410,1299,11996,20,1452
1299,2128,1315,3210,0,437,1329,12029,1,1468
1329,2178,1345,3222,18,407,1359,12028,0,1475
1359,2199,1375,3204,12,408,1389,12010,0,1482
1389,2224,1405,3214,5,406,1419,11968,12,1477
1419,2198,1431,3201,20,411,1444,11888,15,1496
1444,2138,1456,3192,15,382,1469,11895,23,1491
1469,2020,1481,3196,47,409,1494,11911,11,1478
1494,2035,1506,3202,17,432,1519,11947,15,1482
1519,2027,1531,3205,16,428,1545,12005,21,1465
1545,2033,1561,3222,10,430,1575,11963,0,1469
1575,2091,1591,3227,7,402,1605,12018,0,1463
1605,2064,1621,3224,3,411,1635,12003,0,1469
1635,2030,1647,3202,0,384,1660,11917,0,1490
1660,2006,1672,3220,29,384,1685,11909,0,1479
1685,2082,1697,3190,54,411,1710,11860,0,1497
1710,2083,1722,3210,29,427,1735,11871,14,1488
1735,2070,1747,3198,4,431,1760,11887,25,1488
1760,2073,1772,3215,19,427,1785,11923,19,1476
1785,2155,1797,3194,18,409,1810,11963,8,1476
1810,2189,1822,3221,0,396,1836,12020,0,1467
1836,2165,1853,3204,7,397,1866,11902,1,1451
1866,2128,1878,3204,35,386,1891,11920,0,1463
1891,2105,1903,3202,79,417,1916,11904,0,1469
1916,2083,1928,3200,47,404,1941,11913,0,1473
1941,2145,1953,3206,8,423,1966,11904,0,1477
1966,2141,1978,3218,6,415,1991,11871,0,1493
1991,1599,2003,3204,6,420,2016,11849,8,1482
2016,2123,2028,3210,32,418,2041,11864,1,1498
2041,2236,2053,3211,5,412,2066,11883,16,1487
2066,2285,2079,3202,13,399,2091,11932,0,1476
2091,2273,2104,3193,0,396,2116,11913,5,1468
2116,2200,2129,3185,0,412,2142,11910,10,1466
2142,2267,2154,3195,18,419,2167,11899,6,1448
2167,2271,2179,3207,20,443,2192,11919,0,1467
2192,2320,2204,3216,19,435,2217,11892,0,1480
2217,2192,2229,3194,12,426,2242,11904,0,1493
2242,1997,2254,3202,0,399,2267,11871,0,1497
2267,1950,2280,3215,0,410,2292,11933,16,1491
2292,1918,2305,3198,0,379,2317,11905,26,1479
2317,1815,2330,3198,8,392,2342,11920,0,1497
2342,1778,2355,3178,0,401,2367,11923,1,1463
2367,1714,2380,3184,0,444,2392,11917,1,1467
2392,1723,2405,3173,4,428,2418,11903,30,1462
2418,1770,2430,3213,20,439,2443,11910,0,1466
2443,1712,2455,3196,2,420,2468,11927,0,1454
2468,1746,2480,3209,3,410,2493,11893,0,1471
2493,1711,2506,3207,4,390,2518,11928,36,1479
2518,1712,2531,3207,0,392,2543,11918,29,1490
2543,1761,2556,3189,0,407,2568,11916,33,1493
2568,1814,2581,3184,0,418,2593,11923,21,1487
2593,1955,2606,3181,1,429,2618,11912,7,1486
2618,2003,2631,3162,2,443,2643,11911,13,1476
2643,1977,2656,3126,20,419,2668,11926,11,1477
2668,2113,2681,3151,10,404,2693,11927,0,1461
2693,2285,2707,3162,4,406,2719,11905,8,1464
2719,1895,2732,3206,0,403,2744,11919,48,1473
2744,1872,2757,3183,12,399,2769,11926,58,1469
2769,2443,2782,3192,0,408,2794,11901,36,1468
2794,2434,2807,3200,0,404,2819,11915,24,1494
2819,2483,2832,3178,0,434,2844,11908,4,1485
2844,2543,2857,3164,36,411,2869,11924,23,1500
2869,2576,2882,3138,3,398,2894,11924,0,1483
2894,2589,2907,3140,27,409,2919,11930,12,1484
2919,2624,2933,3184,0,397,2949,11925,15,1472
2949,2619,2963,3230,0,383,2974,11906,0,1469
2974,2603,2988,3283,0,405,3000,11923,0,1459
3000,2505,3013,3200,0,427,3025,11917,17,1450
3025,2554,3038,3174,0,420,3050,11915,31,1470
3050,2635,3063,3185,0,423,3075,11909,45,1462
3075,2613,3088,3136,30,411,3100,11923,5,1476
3100,2547,3113,3147,11,411,3125,11930,5,1474
3125,2623,3139,3154,22,410,3155,11911,0,1492
3155,2647,3169,3204,0,410,3185,11925,12,1479
3185,2736,3199,3230,0,398,3215,11917,29,1462
3215,2720,3229,3292,0,418,3240,11917,0,1472
3240,2657,3254,3235,0,432,3265,11921,0,1466
3265,2816,3279,3200,10,429,3291,11923,14,1460
3291,2773,3304,3125,26,421,3316,11910,47,1445
3316,2751,3329,3154,17,406,3341,11918,51,1482
3341,2785,3355,3159,26,406,3371,11884,0,1458
3371,2802,3385,3188,0,386,3401,11909,0,1486
3401,2691,3415,3246,3,404,3431,11902,7,1495
3431,2715,3445,3270,0,418,3461,11926,16,1478
3461,2807,3475,3288,0,416,3491,11914,35,1488
3491,2141,3505,3247,30,424,3521,11928,16,1477
3521,2574,3535,3221,23,398,3546,11908,0,1460
3546,2594,3560,3204,11,392,3572,11900,0,1451
3572,2512,3586,3211,0,357,3602,11904,0,1452
3602,2518,3616,3227,9,373,3632,11910,1,1453
3632,2517,3646,3271,0,391,3662,11898,0,1465
3662,2499,3676,3292,0,412,3692,11891,0,1473
3692,2451,3706,3275,23,403,3722,11897,0,1478
3722,2368,3736,3229,18,418,3752,11903,18,1475
3752,2343,3766,3214,8,393,3782,11924,12,1491
3782,2384,3797,3198,11,377,3812,11901,19,1463
3812,2448,3827,3183,7,369,3842,11904,24,1459
3842,2507,3857,3183,0,401,3873,11896,0,1441
3873,2533,3887,3295,12,419,3903,11870,0,1451
3903,2587,3917,3296,0,411,3933,11867,0,1442
3933,2521,3947,3252,9,412,3963,11889,0,1456
3963,2551,3977,3221,11,398,3993,11884,0,1476
3993,2471,4008,3201,0,394,4023,11905,0,1464
4023,2455,4038,3202,0,385,4053,11902,6,1451
4053,2418,4068,3196,0,398,4083,11899,36,1465
4083,2416,4098,3198,0,415,4113,11888,9,1447
4113,2385,4128,3219,6,418,4143,11880,0,1434
4143,2303,4158,3247,14,429,4174,11906,4,1422
4174,2304,4188,3211,1,397,4204,11895,0,1417
4204,2451,4219,3201,11,409,4234,11874,0,1422
4234,1680,4249,3201,0,396,4264,11889,0,1444
4264,2170,4279,3194,0,407,4294,11898,4,1459
4294,2115,4309,3213,0,425,4324,11920,3,1460
4324,2062,4339,3237,0,423,4354,11921,15,1462
4354,2000,4369,3251,8,436,4384,11926,1,1461
4384,2023,4399,3242,11,409,4414,11925,13,1462
4414,2009,4430,3233,11,401,4445,11885,12,1462
4445,1919,4460,3234,0,377,4475,11893,0,1442
4475,1722,4490,3203,0,394,4505,11872,0,1453
4505,1637,4520,3204,0,415,4535,11884,6,1447
4535,1552,4550,3230,0,425,4565,11869,2,1480
4565,1559,4580,3227,26,398,4595,11903,0,1487
4595,1561,4610,3226,23,393,4625,11916,18,1481
4625,1587,4641,3190,17,373,4655,11875,27,1472
4655,1579,4671,3204,14,371,4685,11895,15,1468
4685,1555,4701,3190,0,395,4715,11896,26,1448
4715,1619,4731,3188,0,398,4746,11882,0,1443
4746,1552,4761,3194,0,416,4776,11878,0,1449
4776,1571,4791,3178,17,415,4806,11862,0,1448
4806,1621,4821,3191,15,401,4836,11902,0,1453
4836,1515,4851,3180,17,397,4866,11879,0,1462
4866,1522,4882,3175,5,385,4896,11927,0,1474
4896,1646,4912,3130,0,383,4926,11888,15,1454
4926,1617,4942,3151,0,422,4956,11881,27,1453
4956,1337,4972,3169,0,421,4986,11889,3,1433
4986,1851,5002,3174,4,408,5017,11874,21,1433
5017,1830,5032,3157,17,402,5047,11875,2,1407
5047,1890,5062,3162,26,387,5077,11883,0,1438
5077,1845,5093,3142,0,387,5107,11978,0,1433
5107,1956,5123,3124,3,408,5137,11968,0,1445
5137,1918,5153,3124,0,400,5167,11922,0,1456
5167,1994,5183,3125,13,423,5197,11909,11,1479
5197,1895,5213,3160,10,420,5227,11888,11,1458
5227,1985,5243,3153,36,414,5257,11900,11,1465
5257,1904,5273,3162,27,396,5287,11882,14,1457
5287,1942,5299,3156,12,406,5313,11955,10,1450
5313,1904,5329,3160,0,387,5343,11948,0,1436
5343,1990,5359,3138,7,397,5373,11969,0,1452
5373,1958,5389,3140,9,415,5403,11954,8,1460
5403,1985,5419,3164,0,419,5433,11935,18,1486
5433,2022,5449,3179,1,402,5463,11903,0,1480
5463,1982,5479,3164,27,403,5493,11886,4,1477
5493,1984,5510,3155,0,391,5523,11823,19,1483
5523,2000,5535,3167,30,377,5548,11883,17,1480
5548,2093,5560,3176,81,399,5573,11915,36,1469
5573,2006,5585,3157,32,412,5599,11970,0,1454
5599,2034,5615,3151,3,417,5629,11941,0,1451
5629,2257,5645,3173,1,408,5659,11960,0,1457
5659,1488,5675,3160,2,402,5689,11952,0,1468
5689,1879,5705,3158,14,407,5719,11940,0,1471
5719,2203,5731,3140,5,386,5744,11818,0,1498
5744,2217,5756,3160,21,390,5769,11808,0,1472
5769,2241,5781,3133,64,392,5794,11822,30,1492
5794,2269,5806,3137,13,415,5819,11829,16,1459
5819,2318,5831,3141,18,413,5844,11881,20,1470
5844,2311,5856,3135,0,415,5869,11936,18,1464
5869,2302,5881,3087,23,395,5895,11960,6,1464
5895,2224,5911,3063,7,384,5925,11913,0,1450
5925,2182,5942,3015,1,371,5955,11861,0,1465
5955,2193,5967,2997,27,383,5980,11857,0,1457
5980,2250,5992,2963,69,409,6005,11845,0,1495
6005,2358,6017,2967,17,405,6030,11815,0,1485
6030,2355,6042,2956,23,405,6055,11812,4,1476
6055,2326,6067,2973,3,415,6080,11825,26,1479
6080,2399,6092,2969,28,411,6105,11813,21,1480
6105,2401,6117,2969,13,391,6130,11884,12,1469
6130,2349,6143,2956,13,394,6155,11871,11,1456
6155,2282,6168,2950,2,387,6181,11856,8,1457
6181,2226,6193,2961,54,390,6206,11859,0,1448
6206,2295,6218,2946,41,392,6231,11882,0,1462
6231,2201,6243,2950,23,423,6256,11859,0,1450
6256,2162,6268,2952,15,423,6281,11865,0,1479
6281,2224,6293,2937,11,422,6306,11833,0,1497
6306,2132,6318,2965,11,396,6331,11797,14,1496
6331,2083,6343,2952,7,393,6356,11800,10,1468
6356,2089,6369,2942,1,393,6381,11859,22,1477
6381,2311,6394,2974,6,380,6406,11870,10,1481
6406,1058,6419,2939,0,398,6431,11867,0,1470
6431,1954,6444,2970,0,409,6457,11861,5,1472
6457,2099,6469,2958,8,418,6482,11864,0,1448
6482,2146,6494,2967,32,405,6507,11871,0,1456
6507,2198,6519,2965,22,422,6532,11860,1,1468
6532,2191,6544,2970,2,407,6557,11862,0,1474
6557,2170,6569,2943,0,385,6582,11862,0,1484
6582,2195,6595,2924,0,391,6607,11879,19,1501
6607,2065,6620,2919,0,386,6632,11849,13,1465
6632,1974,6645,2928,0,392,6657,11864,10,1498
6657,1846,6670,2936,0,404,6682,11853,18,1490
6682,1809,6695,2946,0,428,6707,11866,0,1457
6707,1806,6720,2901,0,412,6732,11864,4,1468
6732,1802,6745,2881,11,415,6758,11849,1,1464
6758,1845,6770,2954,9,397,6783,11871,0,1441
6783,1852,6796,2938,3,396,6808,11863,39,1453
6808,1815,6821,2924,27,393,6833,11871,49,1467
6833,1775,6846,2941,0,391,6858,11865,33,1482
6858,1838,6871,2921,0,407,6883,11879,26,1490
6883,1847,6896,2924,10,420,6908,11855,21,1487
6908,1907,6921,2927,16,397,6933,11866,23,1486
6933,1862,6946,2863,0,408,6958,11878,19,1485
6958,1909,6971,2881,29,410,6983,11859,8,1475
6983,1904,6996,2910,11,394,7008,11851,0,1467
7008,2017,7022,2957,0,397,7034,11877,0,1468
7034,1953,7047,2945,5,384,7059,11852,23,1457
7059,1913,7072,2933,6,400,7084,11873,42,1460
7084,1936,7097,2945,0,415,7109,11873,55,1474
7109,2194,7122,2957,12,426,7134,11858,31,1470
7134,805,7147,2947,11,406,7159,11850,8,1472
7159,1744,7172,2907,24,418,7184,11843,12,1501
7184,2083,7197,2939,0,401,7209,11866,11,1492
7209,2022,7223,2992,13,381,7239,11876,10,1491
7239,1923,7253,3055,2,407,7269,11873,9,1465
7269,1759,7283,3120,6,398,7294,11858,0,1468
7294,1728,7308,3186,0,406,7320,11860,0,1449
7320,1663,7333,3086,0,430,7345,11851,14,1451
7345,1607,7358,3059,0,420,7370,11844,46,1452
7370,1595,7383,3012,8,419,7395,11879,53,1454
7395,1584,7408,3010,19,401,7420,11858,53,1458
7420,1553,7434,3012,12,400,7450,11856,0,1477
7450,1676,7464,3043,7,399,7480,11873,0,1490
7480,1736,7494,3120,0,409,7510,11877,16,1487
7510,1709,7524,3179,0,428,7540,11872,38,1473
7540,1773,7554,3169,0,416,7565,11867,0,1457
7565,1884,7579,3068,12,419,7590,11859,0,1462
7590,1938,7604,3077,5,418,7616,11882,23,1460
7616,1962,7629,3002,22,405,7641,11861,53,1449
7641,1947,7655,3044,0,395,7671,11847,17,1478
7671,2021,7685,3060,0,373,7701,11853,0,1462
7701,2079,7715,3088,0,391,7731,11844,5,1475
7731,2069,7745,3148,0,405,7761,11841,8,1483
7761,2219,7775,3158,1,416,7791,11879,23,1467
7791,2063,7805,3071,23,420,7821,11867,22,1483
7821,2253,7835,2994,10,385,7851,11881,33,1473
7851,2498,7866,2949,12,365,7881,11856,8,1468
7881,1751,7896,2943,10,361,7912,11847,10,1444
7912,2515,7926,2967,0,375,7942,11857,2,1439
7942,2592,7956,3027,0,382,7972,11819,0,1454
7972,2608,7986,3031,0,389,8002,11838,0,1448
8002,2701,8016,2996,15,413,8032,11849,0,1464
8032,2638,8046,2975,0,383,8062,11859,0,1485
8062,2677,8077,2985,8,379,8092,11864,21,1491
8092,2613,8107,2993,16,358,8122,11866,17,1465
8122,2575,8137,2978,0,383,8152,11847,7,1457
8152,2364,8167,2980,0,401,8183,11841,21,1446
8183,2443,8197,3069,0,423,8213,11844,4,1438
8213,2384,8227,3022,22,402,8243,11822,8,1430
8243,2377,8257,2974,28,394,8273,11815,0,1426
8273,2282,8288,2957,13,381,8303,11819,0,1450
8303,2217,8318,2957,9,377,8333,11838,0,1460
8333,2257,8348,2932,7,385,8363,11873,8,1449
8363,2173,8378,2942,0,402,8393,11872,10,1450
8393,2224,8408,2951,11,433,8423,11884,19,1433
8423,2254,8438,2948,4,402,8453,11853,0,1417
8453,2128,8468,2949,25,389,8484,11854,0,1435
8484,1938,8498,2914,31,380,8514,11832,4,1424
8514,1955,8529,2907,8,376,8544,11821,0,1433
8544,2189,8559,2908,0,382,8574,11840,0,1436
8574,1315,8589,2945,0,402,8604,11823,0,1472
8604,1915,8619,2939,17,413,8634,11878,0,1476
8634,1951,8649,2973,11,410,8664,11886,22,1459
8664,1904,8679,2986,22,393,8694,11850,13,1453
8694,1905,8709,2967,15,398,8724,11854,1,1452
8724,1962,8740,2946,9,365,8755,11831,7,1454
8755,1889,8770,2938,0,382,8785,11833,8,1445
8785,1837,8800,2946,0,399,8815,11817,0,1461
8815,1733,8830,2955,5,415,8845,11826,0,1443
8845,1749,8860,2974,0,423,8875,11837,0,1468
8875,1655,8890,2970,12,390,8905,11828,0,1474
8905,1712,8920,2957,31,381,8935,11849,10,1480
8935,1708,8951,2928,0,376,8965,11843,24,1464
8965,1781,8981,2922,0,381,8995,11855,21,1462
8995,1790,9011,2932,0,411,9025,11863,11,1442
9025,1833,9041,2953,0,422,9056,11824,1,1453
9056,1831,9071,2987,1,413,9086,11827,2,1426
9086,1869,9101,2978,28,407,9116,11828,1,1443
9116,1937,9131,2945,6,412,9146,11824,0,1435
9146,1877,9162,2937,0,391,9176,11895,5,1452
9176,1968,9192,2940,0,392,9206,11858,0,1463
9206,1982,9222,2953,0,385,9236,11838,16,1441
9236,2262,9252,2946,0,415,9266,11824,34,1448
9266,1710,9282,2984,12,403,9296,11824,22,1429
9296,2163,9312,2994,8,398,9327,11834,25,1432
9327,2173,9342,2996,12,388,9357,11832,9,1414
9357,2093,9373,2993,0,381,9387,11910,0,1432
9387,2183,9403,2985,0,381,9417,11927,0,1433
9417,2205,9433,3005,0,393,9447,11898,2,1474
9447,2244,9463,3043,0,402,9477,11870,11,1460
9477,2254,9493,3095,14,411,9507,11852,8,1474
9507,2138,9523,3131,14,395,9537,11838,26,1481
9537,2128,9553,3151,11,388,9567,11835,15,1462
9567,2032,9579,3146,28,404,9592,11861,17,1457
9592,2054,9604,3153,36,387,9618,11912,12,1459
9618,1988,9634,3151,0,406,9648,11877,5,1444
9648,1975,9664,3167,0,415,9678,11905,0,1469
9678,2137,9694,3188,0,445,9708,11895,0,1459
9708,2096,9724,3198,17,419,9738,11908,0,1491
9738,2089,9754,3174,14,409,9768,11871,0,1498
9768,2009,9785,3154,35,402,9798,11779,4,1488
9798,2032,9810,3171,22,400,9823,11800,16,1473
9823,2023,9835,3145,46,385,9848,11786,15,1471
9848,1947,9860,3160,36,413,9873,11848,25,1459
9873,1994,9885,3155,6,424,9898,11893,6,1479
9898,2160,9910,3172,8,439,9924,11905,3,1453
9924,1162,9940,3198,20,409,9954,11894,6,1445
9954,1791,9970,3235,0,403,9984,11890,2,1463
9984,2039,10001,3258,0,418,10014,11817,0,1476
10014,1984,10026,3253,40,383,10039,11790,0,1476
10039,2086,10051,3275,53,404,10064,11759,0,1476
10064,2032,10076,3272,54,405,10089,11765,1,1487
10089,2064,10101,3271,5,410,10114,11791,24,1476
10114,2005,10126,3261,7,434,10139,11797,23,1471
10139,2112,10151,3260,17,418,10164,11860,27,1485
10164,2032,10176,3257,25,418,10190,11925,19,1481
10190,1856,10207,3267,15,408,10220,11814,0,1451
10220,1882,10232,3259,12,373,10245,11818,6,1451
10245,1863,10257,3254,55,412,10270,11814,0,1451
10270,1766,10282,3243,47,404,10295,11807,0,1477
10295,1819,10307,3260,35,424,10320,11790,0,1465
10320,1845,10332,3258,15,437,10345,11754,3,1494
10345,1850,10357,3246,20,447,10370,11759,0,1473
10370,1872,10382,3244,17,417,10395,11769,22,1490
10395,1871,10407,3238,8,425,10420,11796,20,1467
10420,1899,10433,3215,2,419,10445,11819,12,1473
10445,1826,10458,3247,0,413,10470,11828,0,1462
10470,1886,10483,3237,0,396,10496,11819,0,1454
10496,1839,10508,3258,31,432,10521,11815,0,1443
10521,1819,10533,3244,8,419,10546,11821,0,1465
10546,1808,10558,3266,18,435,10571,11803,0,1457
10571,2044,10583,3275,18,433,10596,11802,0,1469
10596,803,10608,3285,0,426,10621,11800,0,1479
10621,1553,10634,3265,10,408,10646,11819,13,1483
10646,1855,10659,3246,0,412,10671,11816,8,1484
10671,1888,10684,3260,1,400,10696,11823,22,1480
10696,1944,10709,3270,0,415,10721,11809,6,1477
10721,1878,10734,3252,0,419,10746,11812,13,1459
10746,1888,10759,3290,0,430,10772,11804,6,1453
10772,1994,10784,3284,16,427,10797,11802,0,1461
10797,2059,10809,3283,2,426,10822,11820,0,1453
10822,1939,10834,3275,0,415,10847,11817,0,1465
10847,1839,10860,3291,0,403,10872,11830,34,1454
10872,1776,10885,3289,0,406,10897,11828,23,1485
10897,1794,10910,3275,0,399,10922,11831,18,1479
10922,1746,10935,3294,0,426,10947,11818,14,1478
10947,1723,10960,3258,0,417,10972,11805,21,1479
10972,1755,10985,3235,18,423,10997,11817,10,1460
10997,1839,11010,3232,15,419,11022,11814,10,1472
11022,1783,11035,3248,4,409,11047,11815,2,1471
11047,1795,11061,3252,15,395,11073,11814,21,1437
11073,1820,11086,3296,12,410,11098,11831,23,1448
11098,1781,11111,3285,0,391,11123,11807,63,1451
11123,1842,11136,3263,0,414,11148,11811,28,1459
11148,1905,11161,3274,0,432,11173,11818,28,1472
11173,1808,11186,3282,7,443,11198,11840,11,1472
11198,1827,11211,3255,12,425,11223,11831,26,1500
11223,1776,11236,3222,14,428,11248,11826,6,1479
11248,2020,11261,3237,21,402,11273,11819,20,1478
11273,864,11287,3282,0,401,11298,11830,0,1468
11298,1597,11312,3371,4,387,11323,11814,0,1463
11323,1991,11337,3391,0,416,11349,11827,6,1456
11349,2045,11362,3287,0,421,11374,11821,10,1450
11374,2087,11387,3291,0,438,11399,11828,31,1455
11399,2059,11412,3262,25,414,11424,11811,57,1460
11424,2069,11437,3251,11,420,11449,11817,2,1465
11449,2194,11462,3230,20,406,11474,11801,5,1483
11474,2194,11488,3258,3,407,11504,11817,0,1475
11504,2112,11518,3288,0,398,11534,11844,9,1495
11534,1999,11548,3326,0,402,11564,11830,9,1483
11564,1855,11578,3396,0,409,11589,11810,0,1463
11589,1851,11603,3341,0,448,11614,11809,0,1459
11614,1880,11628,3300,5,416,11640,11795,9,1451
11640,1819,11653,3239,12,413,11665,11811,34,1458
11665,1769,11678,3241,12,412,11690,11804,40,1457
11690,1809,11704,3253,8,418,11720,11796,4,1449
11720,1819,11734,3282,5,406,11750,11800,0,1462
11750,1857,11764,3332,0,397,11780,11809,4,1492
11780,1937,11794,3383,0,442,11810,11826,7,1469
11810,1972,11824,3378,0,436,11840,11822,29,1477
11840,2005,11854,3354,22,433,11870,11823,43,1456
11870,1984,11884,3309,18,413,11895,11815,0,1468
11895,2032,11909,3285,32,401,11921,11809,6,1465
11921,2160,11935,3304,2,402,11951,11805,11,1458
11951,1131,11965,3315,0,404,11981,11798,0,1454
11981,1984,11995,3351,0,401,12011,11794,0,1454
12011,2138,12025,3393,6,429,12041,11798,0,1461
12041,2245,12055,3358,1,407,12071,11799,2,1462
12071,2295,12085,3331,27,415,12101,11816,17,1458
12101,2298,12115,3297,10,392,12131,11828,27,1463
12131,2310,12146,3298,1,388,12161,11813,23,1463
12161,2240,12176,3273,0,373,12191,11808,8,1466
12191,2235,12206,3284,0,390,12222,11791,9,1439
12222,2171,12236,3380,0,413,12252,11793,13,1442
12252,2102,12266,3357,0,405,12282,11787,0,1456
12282,2118,12296,3319,15,420,12312,11793,0,1444
12312,2160,12326,3285,11,404,12342,11786,0,1463
12342,2192,12357,3300,0,383,12372,11813,0,1469
12372,2213,12387,3281,0,396,12402,11811,11,1452
12402,2219,12417,3274,0,396,12432,11805,25,1452
12432,2222,12447,3277,0,420,12462,11805,16,1433
12462,2180,12477,3294,0,430,12492,11810,6,1416
12492,2139,12507,3293,0,420,12523,11795,2,1418
12523,2180,12537,3274,21,417,12553,11788,3,1423
12553,2123,12568,3276,2,401,12583,11796,0,1409
12583,2080,12598,3291,0,373,12613,11808,0,1446
12613,2247,12628,3257,0,403,12643,11818,0,1461
12643,1626,12658,3285,0,412,12673,11835,0,1447
12673,1872,12688,3293,1,422,12703,11837,13,1465
12703,2219,12718,3314,9,421,12733,11834,20,1451
12733,2267,12748,3299,24,397,12763,11828,1,1449
12763,2174,12779,3278,22,397,12794,11809,0,1460
12794,2272,12809,3275,18,383,12824,11812,0,1437
12824,2206,12839,3276,0,390,12854,11795,0,1458
12854,2192,12869,3270,0,398,12884,11795,0,1450
12884,2095,12899,3288,0,408,12914,11813,0,1468
12914,2075,12929,3300,25,413,12944,11826,0,1482
12944,1973,12959,3287,17,408,12974,11820,20,1470
12974,2029,12989,3290,10,394,13004,11810,24,1465
13004,2037,13020,3292,2,389,13034,11811,4,1456
13034,2011,13050,3258,12,390,13064,11816,21,1444
13064,2013,13080,3269,0,433,13095,11805,0,1439
13095,1915,13110,3277,0,435,13125,11807,0,1433
13125,1921,13140,3300,29,423,13155,11783,0,1438
13155,1951,13170,3288,36,417,13185,11797,0,1459
13185,1889,13200,3280,15,419,13215,11810,0,1441
13215,1930,13231,3293,9,380,13245,11825,0,1462
13245,1943,13261,3265,0,399,13275,11799,18,1448
13275,1840,13291,3274,0,421,13305,11798,20,1425
13305,1658,13321,3283,2,434,13335,11804,17,1427
13335,1571,13351,3313,0,432,13366,11788,8,1411
13366,1647,13381,3302,25,406,13396,11793,0,1408
13396,518,13411,3296,26,400,13426,11783,0,1426
13426,1424,13442,3300,0,398,13456,11879,0,1413
13456,1488,13472,3284,0,400,13486,11876,0,1431
13486,1583,13502,3284,0,416,13516,11846,0,1458
13516,1620,13532,3287,0,442,13546,11814,0,1445
13546,1721,13562,3316,6,419,13576,11790,16,1438
13576,1882,13592,3306,27,427,13606,11803,26,1448
13606,1857,13622,3308,13,414,13636,11795,11,1439
13636,1870,13648,3285,10,401,13662,11875,0,1452
13662,1817,13678,3272,1,404,13692,11843,0,1457
13692,1884,13708,3254,0,402,13722,11886,0,1448
13722,1890,13738,3280,4,430,13752,11868,0,1452
13752,1981,13768,3296,16,419,13782,11872,0,1461
13782,2013,13798,3297,19,416,13812,11833,0,1489
13812,2035,13828,3289,26,410,13842,11814,9,1479
13842,1988,13859,3282,15,404,13872,11730,20,1486
13872,2059,13884,3285,20,396,13897,11754,21,1459
13897,2128,13909,3278,62,412,13922,11803,17,1462
13922,2025,13934,3272,37,425,13948,11869,27,1461
13948,2072,13964,3292,0,439,13978,11817,8,1455
13978,2128,13994,3302,0,418,14008,11863,0,1454
14008,2111,14024,3299,15,402,14038,11879,6,1471
14038,2124,14054,3279,18,410,14068,11858,0,1481
14068,2118,14080,3283,33,394,14093,11758,0,1469
14093,2141,14105,3283,37,396,14118,11729,0,1476
14118,2084,14130,3272,47,409,14143,11704,8,1468
14143,1985,14155,3281,16,422,14168,11717,12,1469
14168,2233,14180,3279,0,443,14193,11769,27,1463
14193,1519,14205,3280,6,419,14218,11826,18,1456
14218,1653,14230,3301,11,426,14244,11887,5,1456
14244,2096,14260,3297,23,421,14274,11811,7,1446
14274,2127,14286,3276,31,413,14299,11780,0,1459
14299,2112,14311,3278,32,404,14324,11768,0,1451
14324,2091,14336,3283,62,405,14349,11791,0,1468
14349,2146,14361,3292,26,412,14374,11755,0,1477
14374,2095,14386,3267,37,433,14399,11740,1,1484
14399,2075,14411,3287,14,422,14424,11719,3,1478
14424,2091,14436,3268,20,407,14449,11735,18,1475
14449,2045,14461,3276,0,399,14474,11723,29,1462
14474,1983,14487,3277,11,407,14499,11777,12,1475
14499,1906,14512,3282,0,394,14524,11782,0,1459
14524,1925,14537,3261,11,389,14550,11779,1,1459
14550,1932,14562,3287,35,412,14575,11764,0,1443
14575,1939,14587,3281,32,423,14600,11797,0,1463
14600,1968,14612,3285,37,407,14625,11777,0,1455
14625,1936,14637,3276,25,427,14650,11755,2,1470
14650,2018,14662,3286,6,412,14675,11740,0,1488
14675,1978,14687,3278,0,413,14700,11722,0,1488
14700,1941,14713,3295,0,390,14725,11795,16,1474
14725,1961,14738,3269,0,400,14750,11798,21,1476
14750,1966,14763,3273,0,398,14775,11783,22,1468
14775,1975,14788,3268,0,426,14800,11784,10,1462
14800,1955,14813,3264,0,412,14826,11772,0,1460
14826,2035,14838,3295,2,427,14851,11773,0,1437
14851,2090,14863,3272,4,422,14876,11769,10,1439
14876,2052,14888,3284,2,431,14901,11767,0,1456
14901,2077,14914,3278,13,403,14926,11784,50,1459
14926,2078,14939,3275,8,398,14951,11791,33,1487
14951,2001,14964,3264,0,398,14976,11789,25,1473
14976,1995,14989,3284,0,415,15001,11793,16,1468
15001,2157,15014,3251,0,416,15026,11770,10,1484
15026,1410,15039,3275,0,423,15051,11784,17,1457
15051,1673,15064,3217,15,420,15076,11765,6,1460
15076,2126,15089,3217,8,406,15101,11776,2,1449
15101,2103,15115,3243,29,395,15127,11779,27,1456
15127,2174,15140,3280,0,398,15152,11800,15,1424
15152,2177,15165,3273,0,394,15177,11777,54,1454
15177,2134,15190,3272,0,400,15202,11791,42,1447
15202,2138,15215,3274,14,422,15227,11783,25,1477
15227,2193,15240,3268,0,422,15252,11759,19,1473
15252,2119,15265,3244,20,417,15277,11783,17,1487
15277,2063,15290,3220,19,413,15302,11758,24,1466
15302,2102,15315,3235,17,412,15327,11766,14,1482
15327,2037,15341,3280,0,403,15357,11821,12,1462
15357,1994,15371,3302,0,381,15382,11750,0,1460
15382,1999,15396,3368,0,398,15408,11764,6,1460
15408,1995,15421,3289,0,417,15433,11787,24,1442
15433,1983,15446,3272,0,442,15458,11780,40,1475
15458,1984,15471,3249,0,414,15483,11791,55,1444
15483,1979,15496,3204,18,415,15508,11798,34,1465
15508,1973,15521,3219,4,418,15533,11776,14,1480
15533,2003,15547,3244,0,422,15563,11780,0,1483
15563,1931,15577,3304,0,408,15593,11778,12,1475
15593,1920,15607,3323,0,396,15623,11774,23,1474
15623,1957,15637,3382,0,433,15648,11777,0,1462
15648,1955,15662,3319,0,423,15673,11773,0,1458
15673,1903,15687,3304,6,440,15699,11779,11,1455
15699,1856,15712,3216,32,428,15724,11765,34,1444
15724,1894,15737,3232,10,409,15749,11781,44,1448
15749,1888,15763,3274,0,411,15779,11772,9,1447
15779,1745,15793,3295,0,396,15809,11779,8,1473
15809,1826,15823,3319,0,423,15839,11777,0,1481
15839,2077,15853,3360,17,422,15869,11808,5,1476
15869,1234,15883,3351,0,417,15899,11815,20,1477
15899,1886,15913,3315,37,417,15929,11787,28,1457
15929,1965,15943,3291,31,392,15954,11773,0,1447
15954,1998,15969,3289,9,393,15985,11760,27,1444
15985,2045,15999,3288,3,392,16015,11745,8,1439
16015,2042,16029,3318,0,373,16045,11767,1,1450
16045,2054,16059,3376,0,408,16075,11755,0,1466
16075,2015,16089,3381,0,414,16105,11770,0,1468
16105,1940,16119,3333,6,400,16135,11783,0,1478
16135,1842,16149,3287,24,384,16165,11782,12,1469
16165,1867,16180,3286,21,379,16195,11787,11,1459
16195,1841,16210,3287,0,375,16225,11773,12,1457
16225,1942,16240,3260,0,397,16255,11761,11,1453
16255,1920,16270,3289,0,410,16286,11760,0,1431
16286,1994,16300,3360,0,426,16316,11757,0,1437
16316,1900,16330,3334,12,415,16346,11741,0,1448
16346,1958,16360,3284,18,404,16376,11749,0,1452
16376,1953,16391,3266,14,391,16406,11770,1,1454
16406,2000,16421,3286,0,391,16436,11774,0,1464
16436,1927,16451,3271,0,390,16466,11778,18,1461
16466,1968,16481,3271,0,420,16496,11784,21,1427
16496,1950,16511,3288,9,439,16526,11797,22,1434
16526,2003,16541,3306,21,432,16557,11764,0,1418
16557,1879,16571,3298,17,402,16587,11782,0,1424
16587,1871,16602,3278,10,399,16617,11761,5,1435
16617,1936,16632,3297,0,396,16647,11770,0,1434
16647,1607,16662,3281,5,394,16677,11764,0,1455
16677,1488,16692,3282,0,396,16707,11772,0,1451
16707,1941,16722,3291,0,411,16737,11794,0,1442
16737,1963,16752,3320,22,420,16767,11798,11,1473
16767,2001,16782,3290,33,407,16797,11788,19,1450
16797,2021,16812,3293,15,406,16827,11787,3,1440
16827,2105,16843,3288,12,396,16858,11764,0,1446
16858,2033,16873,3286,0,394,16888,11760,0,1433
16888,1997,16903,3294,0,406,16918,11747,4,1436
16918,1980,16933,3301,3,433,16948,11759,0,1439
16948,1927,16963,3325,23,410,16978,11768,0,1454
16978,1945,16993,3308,23,386,17008,11768,0,1463
17008,1925,17023,3296,23,407,17038,11772,13,1463
17038,1977,17054,3297,0,397,17068,11774,8,1444
17068,2013,17084,3290,0,410,17098,11749,16,1447
17098,2034,17114,3285,0,421,17129,11759,16,1428
17129,1941,17144,3299,0,435,17159,11754,0,1422
17159,1937,17174,3298,0,420,17189,11756,0,1425
17189,1967,17204,3310,7,414,17219,11756,0,1439
17219,2019,17234,3301,5,414,17249,11750,0,1436
17249,1979,17265,3277,5,399,17279,11805,3,1435
17279,2113,17295,3296,4,398,17309,11768,2,1422
17309,1966,17325,3281,0,421,17339,11742,9,1431
17339,2045,17355,3290,0,429,17369,11764,23,1413
17369,2218,17385,3304,0,417,17399,11758,26,1422
17399,1045,17415,3313,20,416,17430,11759,17,1421
17430,1791,17445,3313,11,403,17460,11743,0,1408
17460,2030,17476,3289,3,390,17490,11828,0,1417
17490,2037,17506,3289,0,400,17520,11837,0,1435
17520,2113,17536,3271,0,409,17550,11811,5,1440
17550,2101,17566,3284,0,420,17580,11805,7,1456
17580,2119,17596,3300,0,412,17610,11761,24,1461
17610,2128,17626,3311,14,406,17640,11750,32,1443
17640,1999,17656,3298,5,400,17670,11752,21,1442
17670,1893,17682,3290,22,394,17696,11831,18,1439
17696,1826,17712,3277,12,396,17726,11808,0,1426
17726,1835,17742,3259,3,399,17756,11842,0,1447
17756,1905,17772,3277,6,433,17786,11812,0,1437
17786,1925,17802,3315,0,428,17816,11830,0,1478
17816,2003,17832,3299,25,433,17846,11778,0,1487
17846,1968,17862,3308,17,416,17876,11761,12,1458
17876,1898,17893,3296,7,403,17906,11698,34,1461
17906,1867,17918,3284,30,381,17931,11758,17,1475
17931,1849,17943,3304,72,415,17956,11802,15,1448
17956,1878,17968,3302,24,403,17982,11850,2,1467
17982,1899,17998,3283,0,417,18012,11817,7,1459
18012,2003,18028,3310,25,424,18042,11831,0,1452
18042,1939,18058,3298,24,414,18072,11846,0,1468
18072,1826,18088,3294,15,412,18102,11801,0,1476
18102,1974,18114,3293,0,410,18127,11675,0,1478
18127,1665,18139,3289,40,389,18152,11690,7,1465
18152,1211,18164,3305,57,417,18177,11710,16,1478
18177,1770,18189,3295,37,429,18202,11725,29,1457
18202,1888,18214,3298,4,440,18227,11784,19,1445
18227,1908,18239,3289,24,420,18253,11820,17,1459
18253,1827,18269,3313,25,412,18283,11803,2,1446
18283,1923,18299,3302,9,421,18313,11837,0,1457
18313,1919,18325,3290,15,389,18338,11731,9,1440
18338,1935,18350,3294,40,408,18363,11743,0,1479
18363,1936,18375,3292,56,399,18388,11715,2,1477
18388,1875,18400,3290,40,420,18413,11675,1,1490
18413,1840,18425,3298,18,422,18438,11696,6,1473
18438,1893,18450,3284,17,417,18463,11704,18,1457
18463,1991,18475,3281,1,417,18488,11735,20,1454
18488,1985,18500,3288,0,412,18513,11793,11,1463
18513,1938,18526,3286,0,387,18539,11729,9,1447
18539,1975,18551,3299,27,398,18564,11732,0,1445
18564,2003,18576,3276,42,392,18589,11744,10,1466
18589,1968,18601,3311,59,427,18614,11722,0,1457
18614,1989,18626,3296,20,415,18639,11721,0,1469
18639,2102,18651,3296,14,441,18664,11723,0,1473
18664,2112,18676,3284,5,427,18689,11695,0,1479
18689,2139,18701,3297,33,420,18714,11693,7,1458
18714,2135,18726,3298,3,407,18739,11701,30,1483
18739,1984,18752,3285,9,397,18764,11746,29,1446
18764,1775,18777,3274,0,379,18789,11745,9,1476
18789,1813,18802,3271,0,400,18815,11743,15,1442
18815,2003,18827,3284,24,415,18840,11734,3,1455
18840,763,18852,3293,23,431,18865,11727,0,1430
18865,1440,18877,3280,26,429,18890,11740,0,1450
18890,1599,18902,3311,7,432,18915,11733,0,1453
18915,1655,18927,3289,0,420,18940,11711,0,1471
18940,1727,18953,3301,1,404,18965,11743,15,1485
18965,1718,18978,3302,0,380,18990,11750,11,1471
18990,1677,19003,3292,0,398,19015,11744,16,1478
19015,1747,19028,3266,0,412,19040,11737,14,1464
19040,1677,19053,3277,0,421,19065,11748,15,1454
19065,1575,19078,3278,0,413,19091,11737,0,1455
19091,1517,19103,3312,6,407,19116,11722,0,1438
19116,1552,19128,3284,0,408,19141,11737,0,1462
19141,1513,19153,3287,3,397,19166,11735,0,1448
19166,1460,19179,3288,3,409,19191,11739,32,1453
19191,1439,19204,3273,0,382,19216,11740,15,1473
19216,1459,19229,3278,0,404,19241,11743,8,1486
19241,1465,19254,3289,0,425,19266,11745,27,1456
19266,1547,19279,3277,0,444,19291,11754,27,1477
19291,1425,19304,3237,11,420,19316,11756,26,1460
19316,1457,19329,3206,11,430,19341,11735,7,1462
19341,1498,19354,3240,12,415,19366,11728,0,1442
19366,1552,19380,3258,9,409,19392,11745,17,1451
19392,1546,19405,3285,0,402,19417,11748,40,1441
19417,1623,19430,3294,0,414,19442,11750,44,1454
19442,1617,19455,3281,0,404,19467,11741,46,1457
19467,1614,19480,3267,0,440,19492,11734,17,1462
19492,1574,19505,3271,0,434,19517,11741,7,1483
19517,1803,19530,3259,4,433,19542,11747,8,1478
19542,663,19555,3206,27,410,19567,11744,7,1476
19567,1311,19580,3243,3,411,19592,11756,10,1465
19592,1674,19606,3292,0,401,19617,11741,0,1466
19617,1759,19631,3373,0,426,19642,11754,0,1453
19642,1838,19656,3380,0,405,19668,11738,13,1447
19668,1807,19681,3279,0,425,19693,11739,17,1435
19693,1843,19706,3284,0,453,19718,11749,33,1454
19718,1932,19731,3278,8,436,19743,11735,23,1446
19743,1982,19756,3204,32,435,19768,11744,23,1458
19768,1977,19781,3222,0,409,19793,11739,10,1471
19793,1887,19807,3254,0,397,19823,11751,0,1479
19823,1888,19837,3294,0,403,19853,11758,6,1463
19853,1936,19867,3321,0,399,19883,11751,20,1449
19883,1989,19897,3370,1,427,19908,11733,0,1461
19908,2027,19922,3320,0,436,19934,11731,0,1446
19934,2083,19947,3248,14,421,19959,11732,22,1448
19959,2166,19972,3211,10,413,19984,11741,46,1428
19984,2112,19997,3252,30,408,20009,11747,57,1457
20009,2058,20023,3278,9,385,20039,11738,0,1471
20039,2095,20053,3311,0,393,20069,11739,10,1475
20069,2091,20083,3333,0,395,20099,11763,4,1474
20099,2222,20113,3380,0,415,20129,11757,21,1472
20129,2181,20143,3358,6,413,20159,11758,32,1458
20159,2272,20173,3319,19,410,20184,11728,0,1464
20184,2226,20198,3286,18,424,20209,11735,0,1452
20209,2183,20224,3273,0,371,20240,11744,10,1436
20240,2434,20254,3284,12,384,20270,11714,1,1440
20270,1299,20284,3304,0,392,20300,11724,2,1436
20300,2111,20314,3378,0,393,20330,11735,0,1477
20330,2360,20344,3377,0,430,20360,11743,2,1456
20360,2391,20374,3334,32,405,20390,11741,0,1480
20390,2371,20404,3287,2,399,20420,11746,5,1461
20420,2431,20435,3285,23,381,20450,11757,24,1447
20450,2369,20465,3277,21,371,20480,11724,8,1442
20480,2386,20495,3270,1,393,20511,11728,8,1443
20511,2295,20525,3360,0,409,20541,11724,0,1434
20541,2266,20555,3368,0,423,20571,11708,0,1435
20571,2271,20585,3334,12,400,20601,11719,0,1448
20601,2207,20615,3294,15,400,20631,11735,0,1472
20631,2239,20646,3272,18,392,20661,11725,0,1475
20661,2173,20676,3287,3,395,20691,11731,25,1446
20691,2139,20706,3273,0,391,20721,11726,15,1431
20721,2128,20736,3279,0,433,20751,11731,2,1445
20751,2128,20766,3298,0,430,20782,11710,3,1415
20782,2031,20796,3334,23,427,20812,11720,0,1414
20812,1999,20826,3299,9,417,20842,11712,0,1420
20842,2065,20857,3288,14,398,20872,11731,0,1424
20872,1986,20887,3278,7,385,20902,11720,2,1437
20902,1971,20917,3293,3,404,20932,11728,0,1442
20932,1983,20947,3290,0,434,20962,11738,13,1442
20962,2035,20977,3302,0,448,20992,11729,22,1448
20992,2000,21007,3314,21,429,21022,11751,15,1418
21022,1709,21037,3312,13,415,21053,11725,15,1420
21053,2081,21068,3292,0,410,21083,11732,2,1421
21083,2077,21098,3291,0,384,21113,11721,0,1434
21113,2096,21128,3282,0,403,21143,11725,0,1420
21143,2119,21158,3274,0,428,21173,11736,0,1455
21173,2176,21188,3300,0,432,21203,11741,0,1460
21203,2158,21218,3309,19,413,21233,11748,22,1451
21233,2145,21248,3312,27,413,21263,11752,31,1458
21263,2062,21279,3306,21,392,21293,11731,20,1447
21293,2005,21309,3289,0,379,21323,11733,17,1452
21323,1964,21339,3281,0,394,21354,11707,0,1446
21354,1917,21369,3286,0,412,21384,11698,0,1440
21384,2005,21399,3299,0,422,21414,11717,0,1446
21414,2037,21429,3308,14,410,21444,11699,1,1455
21444,2043,21459,3291,1,394,21474,11734,0,1458
21474,2059,21489,3283,15,399,21504,11733,0,1456
21504,2011,21520,3285,4,383,21534,11732,6,1469
21534,1946,21550,3263,0,396,21564,11720,12,1433
21564,1923,21580,3273,0,408,21594,11730,24,1432
21594,1872,21610,3280,0,419,21625,11702,0,1427
21625,1811,21640,3297,18,417,21655,11711,8,1408
21655,1727,21670,3278,15,400,21685,11711,0,1430
21685,1810,21700,3284,22,387,21715,11703,0,1434
21715,2088,21731,3280,1,391,21745,11785,0,1443
21745,917,21761,3265,0,407,21775,11743,0,1444
21775,1785,21791,3285,0,412,21805,11721,19,1433
21805,2033,21821,3271,11,441,21835,11732,17,1425
21835,2134,21851,3316,18,442,21865,11731,15,1422
21865,2166,21881,3291,19,416,21896,11712,9,1406
21896,2153,21911,3285,18,394,21926,11735,0,1396
21926,2177,21942,3276,0,415,21956,11807,0,1435
21956,2250,21972,3266,18,410,21986,11804,0,1431
21986,2121,22002,3262,0,414,22016,11793,0,1463
22016,2131,22032,3289,10,426,22046,11744,0,1454
22046,2086,22062,3307,25,421,22076,11720,20,1478
22076,2164,22092,3311,13,402,22106,11725,31,1463
22106,2115,22122,3275,14,412,22136,11722,18,1452
22136,2097,22148,3298,11,421,22161,11793,28,1440
22161,2128,22173,3285,63,394,22187,11812,0,1448
22187,2081,22203,3268,3,400,22217,11777,0,1436
22217,2114,22233,3277,14,433,22247,11789,0,1453
22247,2032,22263,3295,0,421,22277,11783,0,1465
22277,2027,22293,3305,29,412,22307,11774,0,1480
22307,2067,22323,3310,7,422,22337,11738,0,1471
22337,2099,22354,3297,4,413,22367,11664,12,1461
22367,2085,22379,3284,44,404,22392,11676,34,1465
22392,2061,22404,3273,66,402,22417,11736,25,1426
22417,2036,22429,3288,32,414,22443,11805,5,1454
22443,2023,22459,3288,0,442,22473,11745,11,1434
22473,2207,22489,3308,8,413,22503,11772,12,1466
22503,976,22519,3301,6,408,22533,11789,0,1447
22533,1939,22549,3283,4,398,22563,11763,0,1467
22563,2064,22575,3278,17,391,22588,11678,0,1466
22588,2113,22600,3275,29,406,22613,11629,0,1493
22613,2110,22625,3291,43,417,22638,11670,12,1464
22638,2124,22650,3272,10,437,22663,11679,27,1475
22663,2167,22675,3283,0,437,22688,11708,18,1460
22688,2203,22700,3280,19,415,22713,11781,31,1463
22713,2227,22725,3292,5,423,22739,11802,10,1455
22739,2143,22755,3298,6,404,22769,11769,10,1432
22769,2021,22781,3287,7,399,22794,11693,0,1454
22794,2022,22806,3293,23,399,22819,11687,0,1455
22819,1968,22831,3276,53,411,22844,11693,0,1478
22844,2022,22856,3293,25,427,22869,11651,4,1478
22869,1995,22881,3294,20,437,22894,11642,0,1475
22894,2063,22906,3296,23,429,22919,11656,8,1463
22919,2109,22931,3277,16,433,22944,11683,41,1477
22944,2143,22956,3297,0,402,22969,11712,16,1440
22969,2086,22982,3280,3,402,22994,11714,0,1452
22994,2105,23007,3283,0,388,23020,11704,5,1429
23020,2060,23032,3291,88,416,23045,11698,0,1446
23045,2021,23057,3287,37,396,23070,11696,0,1465
23070,2042,23082,3283,9,434,23095,11714,0,1466
23095,2084,23107,3287,14,422,23120,11686,0,1464
23120,2090,23132,3280,23,426,23145,11660,0,1478
23145,2062,23157,3291,4,407,23170,11629,7,1474
23170,2099,23182,3288,2,416,23195,11668,13,1478
23195,2142,23208,3294,3,387,23220,11712,23,1469
23220,1936,23233,3279,4,405,23245,11706,0,1464
23245,1888,23258,3254,0,399,23270,11707,11,1455
23270,1878,23283,3285,0,444,23296,11695,3,1445
23296,2224,23308,3297,14,425,23321,11704,0,1442
23321,887,23333,3309,12,418,23346,11721,1,1455
23346,1797,23358,3288,12,395,23371,11705,0,1453
23371,2078,23383,3298,0,417,23396,11700,0,1478
23396,2082,23409,3293,0,398,23421,11711,23,1472
23421,2091,23434,3271,0,408,23446,11716,25,1478
23446,2032,23459,3272,0,407,23471,11721,26,1463
23471,2039,23484,3284,0,421,23496,11723,0,1481
23496,2039,23509,3266,2,432,23521,11707,20,1451
23521,2006,23534,3266,0,417,23546,11705,0,1449
23546,1994,23559,3228,4,428,23572,11712,3,1454
23572,1984,23584,3296,4,419,23597,11684,0,1432
23597,1894,23610,3310,25,399,23622,11709,33,1463
23622,1882,23635,3290,16,396,23647,11714,54,1444
23647,1861,23660,3273,1,411,23672,11702,32,1471
23672,1814,23685,3279,0,414,23697,11711,12,1472
23697,1831,23710,3275,15,426,23722,11715,23,1488
23722,1872,23735,3278,0,438,23747,11707,28,1467
23747,1859,23760,3257,13,438,23772,11715,8,1483
23772,1886,23785,3223,25,412,23797,11713,0,1466
23797,1872,23810,3232,30,403,23822,11709,0,1451
23822,1881,23836,3279,5,413,23848,11714,8,1429
23848,1859,23861,3271,11,417,23873,11727,27,1438
23873,1838,23886,3279,0,396,23898,11692,35,1439
23898,1827,23911,3277,0,430,23923,11707,43,1455
23923,1792,23936,3261,0,427,23948,11712,27,1462
23948,1806,23961,3242,7,424,23973,11710,0,1481
23973,1868,23986,3235,20,423,23998,11696,19,1473
23998,1877,24011,3233,15,406,24023,11711,26,1468
24023,1821,24037,3233,0,403,24053,11717,10,1474
24053,1956,24067,3293,4,393,24078,11702,0,1472
24078,1883,24092,3376,0,409,24103,11713,0,1474
24103,1883,24117,3357,0,414,24129,11697,21,1444
24129,1987,24142,3286,0,421,24154,11715,22,1443
24154,2237,24167,3258,0,423,24179,11715,37,1453
24179,1205,24192,3267,18,440,24204,11722,38,1456
24204,1872,24217,3215,11,405,24229,11706,24,1465
24229,2015,24242,3250,1,418,24254,11713,11,1473
24254,2107,24268,3278,5,398,24284,11715,0,1474
24284,2000,24298,3311,0,390,24314,11738,15,1478
24314,2140,24328,3348,0,408,24344,11736,33,1453
24344,2130,24358,3384,0,431,24369,11699,0,1442
24369,2128,24383,3294,0,429,24395,11708,3,1446
24395,2109,24408,3213,16,435,24420,11710,40,1432
24420,2028,24433,3220,1,416,24445,11710,47,1440
24445,1951,24459,3237,25,397,24475,11685,0,1446
24475,1911,24489,3276,0,394,24505,11711,0,1467
24505,1911,24519,3315,0,410,24535,11700,17,1455
24535,1872,24549,3374,0,420,24565,11723,9,1467
24565,1866,24579,3364,0,426,24595,11727,10,1459
24595,1920,24609,3347,26,421,24625,11710,21,1451
24625,1827,24639,3298,18,398,24650,11704,0,1461
24650,1863,24664,3302,0,389,24675,11706,0,1456
24675,1898,24690,3285,0,395,24706,11693,0,1446
24706,1903,24720,3304,0,405,24736,11700,5,1431
24736,1941,24750,3337,0,394,24766,11697,0,1447
24766,1925,24780,3369,0,398,24796,11696,0,1442
24796,1947,24810,3353,11,415,24826,11692,0,1464
24826,1959,24840,3329,45,409,24856,11709,0,1446
24856,1953,24870,3276,19,415,24886,11720,32,1452
24886,1971,24901,3295,8,386,24916,11703,22,1443
24916,1920,24931,3283,0,393,24946,11700,29,1442
24946,1926,24961,3295,0,396,24977,11681,7,1439
24977,2228,24991,3389,12,438,25007,11692,0,1430
25007,1087,25021,3369,6,407,25037,11661,5,1433
25037,1903,25051,3321,27,421,25067,11690,0,1438
25067,2053,25081,3293,5,399,25097,11686,0,1454
25097,2112,25112,3298,4,401,25127,11701,0,1454
25127,2141,25142,3272,0,406,25157,11709,11,1450
25157,2126,25172,3278,0,421,25187,11705,37,1437
25187,2117,25202,3296,0,441,25217,11693,16,1433
25217,2133,25232,3311,2,424,25248,11704,14,1417
25248,1966,25262,3340,23,417,25278,11695,0,1414
25278,1927,25292,3299,2,413,25308,11697,0,1421
25308,1855,25323,3285,0,406,25338,11670,2,1418
25338,1910,25353,3292,0,403,25368,11705,0,1431
25368,1882,25383,3291,0,404,25398,11711,6,1447
25398,1883,25413,3279,0,432,25428,11717,22,1455
25428,1875,25443,3329,0,410,25458,11728,27,1449
25458,1857,25473,3307,23,407,25488,11721,30,1447
25488,1831,25503,3306,22,402,25518,11672,1,1434
25518,1875,25534,3301,0,406,25549,11599,0,1426
25549,1841,25564,3298,0,396,25579,11637,0,1435
25579,1908,25594,3325,14,401,25609,11673,0,1452
25609,1934,25624,3317,0,419,25639,11666,0,1445
25639,1874,25654,3371,20,412,25669,11684,0,1475
25669,1968,25684,3354,21,412,25699,11795,0,1483
25699,1935,25714,3352,19,388,25729,11768,18,1476
25729,1949,25745,3347,0,408,25759,11744,16,1460
25759,1904,25775,3348,1,393,25789,11699,4,1434
25789,1925,25805,3339,0,406,25820,11643,12,1432
25820,2240,25835,3357,9,420,25850,11654,1,1420
25850,1274,25865,3368,13,410,25880,11640,6,1430
25880,1983,25895,3377,15,431,25910,11650,0,1429
25910,2045,25925,3375,25,401,25940,11682,0,1444
25940,2008,25956,3344,5,393,25970,11707,0,1458
25970,2069,25986,3337,7,416,26000,11684,20,1451
26000,2064,26016,3349,0,422,26030,11710,28,1433
26030,2155,26046,3363,2,417,26060,11744,15,1418
26060,2121,26076,3366,6,418,26090,11740,14,1421
26090,2102,26106,3366,41,416,26121,11753,15,1406
26121,1925,26136,3369,11,398,26151,11765,0,1411
26151,1941,26167,3348,7,401,26181,11800,0,1415
26181,1973,26197,3313,0,410,26211,11776,0,1432
26211,2021,26227,3331,6,396,26241,11756,0,1442
26241,2001,26257,3339,0,452,26271,11607,0,1432
26271,2042,26287,3353,19,411,26301,11547,11,1437
26301,1987,26317,3328,28,422,26331,11495,27,1410
26331,1965,26347,3352,20,416,26361,11506,11,1423
26361,1988,26373,3326,10,399,26387,11540,12,1403
26387,1982,26403,3321,4,401,26417,11417,10,1409
26417,1943,26433,3335,0,402,26447,11519,0,1415
26447,1993,26463,3329,17,407,26477,11551,0,1427
26477,2069,26493,3344,0,409,26507,11618,0,1465
26507,2106,26523,3362,14,432,26537,11647,0,1475
26537,2059,26553,3354,20,410,26567,11658,7,1468
26567,1979,26584,3345,5,397,26597,11607,31,1462
26597,1992,26609,3350,22,400,26622,11642,29,1456
26622,2279,26634,3353,70,409,26647,11692,8,1453
26647,928,26659,3365,20,434,26673,11714,7,1434
26673,1793,26689,3353,0,448,26703,11655,0,1437
26703,2058,26719,3386,0,421,26733,11635,0,1434
26733,2193,26749,3382,8,421,26763,11580,0,1433
26763,2102,26779,3359,11,420,26793,11550,0,1447
26793,2106,26805,3360,35,396,26818,11451,0,1451
26818,2153,26830,3365,27,410,26843,11435,5,1457
26843,2174,26855,3351,51,397,26868,11464,13,1457
26868,2077,26880,3342,8,417,26893,11517,33,1442
26893,2174,26905,3327,14,435,26918,11577,0,1438
26918,2043,26930,3347,0,428,26943,11665,24,1447
26943,2110,26955,3413,14,419,26969,11688,10,1451
26969,2125,26985,3541,13,405,26999,11630,0,1447
26999,1968,27011,3631,9,428,27024,11572,0,1443
27024,1945,27036,3761,57,410,27049,11553,0,1448
27049,2047,27061,3918,36,425,27074,11545,0,1456
27074,1994,27086,3994,43,432,27099,11548,0,1468
27099,1894,27111,4067,24,456,27124,11499,3,1460
27124,1974,27136,4122,19,464,27149,11527,8,1463
27149,1982,27161,4185,20,463,27174,11525,31,1445
27174,2037,27186,4241,0,447,27199,11550,10,1458
27199,1893,27212,4327,13,460,27224,11537,6,1443
27224,1887,27237,4387,0,439,27250,11522,1,1437
27250,1875,27262,4466,46,445,27275,11532,0,1431
27275,2016,27287,4495,38,448,27300,11546,0,1443
27300,1936,27312,4501,23,471,27325,11546,0,1432
27325,1871,27337,4556,32,499,27350,11568,0,1469
27350,1865,27362,4597,13,468,27375,11550,0,1457
27375,1924,27387,4674,4,464,27400,11515,0,1467
27400,2203,27412,4680,0,460,27425,11527,7,1454
27425,679,27438,4719,0,457,27450,11587,13,1466
27450,1653,27463,4701,16,451,27475,11580,19,1448
27475,1904,27488,4696,0,465,27500,11567,0,1441
27500,1842,27513,4695,3,473,27526,11560,0,1441
27526,1943,27538,4761,20,506,27551,11537,7,1416
27551,1985,27563,4801,26,480,27576,11535,10,1432
27576,2013,27588,4828,16,481,27601,11528,0,1427
27601,2030,27613,4842,0,462,27626,11513,0,1451
27626,2005,27639,4864,0,465,27651,11553,14,1460
27651,1927,27664,4909,3,469,27676,11567,22,1468
27676,1838,27689,5020,0,481,27701,11553,30,1451
27701,1803,27714,5136,0,482,27726,11590,22,1469
27726,1696,27739,5168,0,504,27751,11614,12,1457
27751,1789,27764,5216,0,508,27776,11587,11,1448
27776,1776,27789,5231,4,514,27802,11576,8,1434
27802,1874,27814,5321,2,503,27827,11565,17,1439
27827,1834,27839,5389,0,504,27852,11554,0,1423
27852,1803,27865,5449,5,478,27877,11565,80,1443
27877,1805,27890,5439,0,477,27902,11577,40,1433
27902,1741,27915,5371,7,490,27927,11564,47,1466
27927,1700,27940,5324,0,508,27952,11552,18,1465
27952,1723,27965,5230,0,517,27977,11564,25,1448
27977,1745,27990,5188,23,494,28002,11567,15,1459
28002,1798,28015,5132,7,510,28027,11568,1,1446
28027,1825,28040,5162,9,491,28052,11553,0,1455
28052,1838,28066,5179,24,489,28078,11572,0,1451
28078,1767,28091,5193,0,461,28103,11574,28,1440
28103,1779,28116,5158,0,485,28128,11584,38,1437
28128,1922,28141,5165,0,487,28153,11573,68,1444
28153,1647,28166,5189,0,509,28178,11574,42,1436
28178,1247,28191,5175,0,504,28203,11568,14,1441
28203,1787,28216,5137,11,513,28228,11579,14,1477
28228,1973,28241,5088,14,491,28253,11561,12,1465
28253,1974,28266,5121,8,498,28278,11578,0,1458
28278,1951,28292,5136,11,473,28308,11575,17,1462
28308,2058,28322,5147,0,494,28333,11557,0,1432
28333,2075,28347,5184,0,481,28359,11562,0,1443
28359,2039,28372,5060,0,499,28384,11550,18,1431
28384,2018,28397,5015,0,520,28409,11565,28,1445
28409,1969,28422,4982,15,497,28434,11565,76,1432
28434,1907,28447,4933,18,492,28459,11570,25,1440
28459,1881,28472,4950,9,472,28484,11572,14,1465
28484,1865,28498,4958,18,479,28514,11570,0,1465
28514,1950,28528,4984,0,467,28544,11586,6,1450
28544,1837,28558,5008,0,478,28574,11584,26,1458
28574,1909,28588,5067,0,498,28599,11566,0,1446
28599,1901,28613,4980,10,482,28624,11569,0,1437
28624,1853,28638,4982,22,503,28650,11565,12,1447
28650,1883,28663,4879,31,477,28675,11568,45,1423
28675,1870,28688,4875,11,471,28700,11564,57,1432
28700,1767,28714,4919,0,458,28730,11546,0,1432
28730,1822,28744,4913,0,451,28760,11546,0,1444
28760,1857,28774,4891,0,469,28790,11574,6,1462
28790,1795,28804,4866,0,489,28820,11590,18,1448
28820,1734,28834,4727,10,470,28850,11582,33,1449
28850,2136,28864,4538,22,454,28875,11567,0,1442
28875,1193,28889,4448,5,449,28900,11562,0,1433
28900,1712,28915,4495,15,439,28931,11534,10,1425
28931,2219,28945,4539,0,413,28961,11529,0,1409
28961,2297,28975,4619,0,445,28991,11522,0,1433
28991,2330,29005,4717,0,456,29021,11560,0,1438
29021,2209,29035,4756,0,460,29051,11537,0,1471
29051,2234,29065,4708,14,485,29081,11583,7,1467
29081,2255,29095,4631,13,455,29111,11574,14,1444
29111,2177,29126,4631,17,439,29141,11557,22,1442
29141,1987,29156,4590,2,415,29171,11577,32,1440
29171,2007,29186,4559,1,436,29202,11557,10,1423
29202,1951,29216,4622,0,448,29232,11534,0,1407
29232,2027,29246,4620,0,465,29262,11542,15,1427
29262,1878,29276,4599,15,462,29292,11540,0,1432
29292,1901,29306,4566,9,447,29322,11539,0,1435
29322,1870,29337,4568,7,456,29352,11571,0,1449
29352,1894,29367,4572,0,432,29382,11554,18,1440
29382,1798,29397,4548,0,436,29412,11567,18,1433
29412,1870,29427,4578,0,456,29442,11574,25,1421
29442,1851,29457,4593,0,470,29473,11554,18,1421
29473,1865,29487,4642,2,471,29503,11557,4,1415
29503,1781,29517,4595,14,460,29533,11554,0,1405
29533,1888,29548,4599,6,452,29563,11546,0,1408
29563,2194,29578,4583,0,436,29593,11560,0,1428
29593,1264,29608,4544,0,449,29623,11565,0,1435
29623,1913,29638,4520,0,469,29653,11585,9,1415
29653,2059,29668,4521,0,464,29683,11579,20,1436
29683,2085,29698,4502,10,471,29713,11595,15,1425
29713,2097,29728,4500,7,443,29743,11583,23,1410
29743,2135,29758,4480,14,432,29774,11561,0,1422
29774,2256,29789,4492,2,425,29804,11558,2,1415
29804,2173,29819,4467,0,445,29834,11556,7,1431
29834,2109,29849,4483,0,455,29864,11572,0,1449
29864,2127,29879,4480,0,465,29894,11564,0,1440
29894,2192,29909,4504,28,456,29924,11571,0,1464
29924,2227,29939,4497,13,457,29954,11602,12,1469
29954,2281,29969,4485,15,451,29984,11569,18,1432
29984,2304,30000,4457,5,435,30014,11556,8,1448
30014,2289,30030,4433,0,435,30045,11552,12,1439
30045,2352,30060,4426,0,440,30075,11547,0,1437
30075,2371,30090,4437,0,451,30105,11555,0,1424
30105,2417,30120,4466,0,456,30135,11553,0,1426
30135,2398,30150,4444,30,437,30165,11554,0,1464
30165,2384,30180,4431,10,440,30195,11572,0,1443
30195,2405,30211,4418,0,425,30225,11563,6,1441
30225,2654,30241,4396,0,436,30255,11562,20,1433
30255,1456,30271,4411,0,445,30285,11566,13,1417
30285,2279,30301,4406,0,467,30316,11556,0,1408
30316,2480,30331,4423,18,451,30346,11559,0,1401
30346,2529,30361,4417,24,454,30376,11563,0,1415
30376,2544,30391,4417,15,429,30406,11557,0,1414
30406,2570,30422,4405,17,454,30436,11619,0,1429
30436,2555,30452,4380,0,447,30466,11594,0,1421
30466,2567,30482,4387,0,435,30496,11569,13,1411
30496,2471,30512,4388,0,480,30526,11572,15,1424
30526,2429,30542,4401,2,462,30556,11571,19,1408
30556,2439,30572,4408,29,456,30586,11569,17,1408
30586,2351,30602,4388,18,443,30617,11554,0,1409
30617,2286,30633,4387,2,432,30647,11631,0,1417
30647,2299,30663,4372,3,438,30677,11628,0,1409
30677,2253,30693,4379,6,447,30707,11633,0,1434
30707,2292,30723,4391,11,474,30737,11603,0,1450
30737,2250,30753,4387,22,474,30767,11560,0,1455
30767,2208,30783,4366,32,444,30797,11554,7,1448
30797,2153,30813,4363,10,448,30827,11568,23,1439
30827,2085,30839,4358,17,431,30852,11588,12,1444
30852,2101,30864,4391,53,429,30878,11668,0,1447
30878,1967,30894,4419,0,448,30908,11607,4,1429
30908,2416,30924,4535,0,489,30938,11641,0,1439
30938,946,30954,4734,0,492,30968,11653,0,1435
30968,2165,30984,4876,14,490,30998,11621,0,1452
30998,2205,31014,5019,9,496,31028,11596,5,1471
31028,2209,31045,5135,2,479,31058,11485,0,1458
31058,2223,31070,5268,30,481,31083,11516,11,1465
31083,2355,31095,5435,59,489,31108,11539,30,1432
31108,2387,31120,5537,36,517,31133,11585,12,1449
31133,2399,31145,5570,10,539,31159,11633,0,1437
31159,2375,31175,5602,0,531,31189,11592,1,1426
31189,2314,31205,5629,12,531,31219,11638,13,1435
31219,2230,31235,5691,5,521,31249,11655,0,1432
31249,2182,31261,5715,0,520,31274,11526,0,1443
31274,2082,31286,5770,25,502,31299,11496,0,1452
31299,2083,31311,5781,78,516,31324,11480,1,1455
31324,2143,31336,5779,20,545,31349,11466,17,1466
31349,2127,31361,5798,20,527,31374,11497,14,1450
31374,2105,31386,5804,19,530,31399,11536,13,1447
31399,2096,31411,5777,14,527,31424,11610,2,1439
31424,1990,31436,5790,0,519,31450,11633,4,1417
31450,1936,31467,5747,6,516,31480,11555,7,1428
31480,1792,31492,5730,41,496,31505,11544,0,1447
31505,1781,31517,5713,53,520,31530,11531,0,1446
31530,1693,31542,5685,35,512,31555,11504,0,1453
31555,1690,31567,5702,6,537,31580,11484,12,1471
31580,1637,31592,5687,23,518,31605,11459,12,1469
31605,1940,31617,5697,14,507,31630,11476,14,1468
31630,864,31642,5680,14,517,31655,11514,17,1457
31655,1510,31667,5669,14,511,31680,11547,12,1441
31680,1570,31693,5675,11,491,31705,11527,14,1433
31705,1642,31718,5657,8,509,31731,11534,7,1428
31731,1648,31743,5671,49,505,31756,11512,4,1421
31756,1620,31768,5670,0,527,31781,11547,0,1438
31781,1580,31793,5664,34,535,31806,11536,0,1443
31806,1627,31818,5667,5,546,31831,11535,0,1449
31831,1679,31843,5656,11,518,31856,11533,0,1454
31856,1421,31868,5644,0,518,31881,11477,0,1465
31881,1387,31894,5639,0,514,31906,11568,10,1462
31906,1389,31919,5631,0,487,31931,11546,8,1455
31931,1301,31944,5607,0,517,31956,11541,0,1438
31956,1323,31969,5603,0,530,31981,11525,14,1446
31981,1374,31994,5587,0,527,32007,11532,7,1423
32007,1457,32019,5581,15,507,32032,11524,4,1426
32032,1551,32044,5610,34,533,32057,11536,0,1446
32057,1526,32069,5572,0,500,32082,11532,0,1438
32082,1514,32095,5568,3,502,32107,11559,32,1461
32107,1535,32120,5523,5,477,32132,11540,35,1465
32132,1535,32145,5497,0,501,32157,11544,12,1468
32157,1611,32170,5467,0,492,32182,11547,22,1460
32182,1602,32195,5449,0,511,32207,11556,10,1444
32207,1694,32220,5417,0,516,32232,11547,12,1459
32232,1645,32245,5367,10,523,32257,11548,6,1436
32257,1615,32270,5306,20,492,32283,11535,15,1438
32283,1680,32295,5365,11,513,32308,11542,0,1414
32308,1894,32321,5392,0,481,32333,11543,40,1430
32333,1139,32346,5402,2,481,32358,11528,49,1434
32358,1360,32371,5383,0,489,32383,11546,32,1460
32383,1922,32396,5373,0,507,32408,11540,15,1469
32408,1949,32421,5357,0,518,32433,11542,17,1465
32433,1955,32446,5328,4,512,32458,11541,11,1456
32458,1904,32471,5281,26,512,32483,11558,17,1453
32483,1904,32496,5275,12,482,32508,11550,26,1445
32508,2003,32522,5259,3,481,32533,11550,0,1456
32533,1987,32547,5281,0,473,32559,11546,5,1426
32559,1853,32572,5196,2,475,32584,11552,20,1440
32584,1840,32597,5221,0,486,32609,11536,38,1430
32609,1740,32622,5252,0,513,32634,11573,54,1436
32634,1706,32647,5263,0,485,32659,11537,17,1461
32659,1573,32672,5217,1,514,32684,11525,5,1443
32684,1509,32697,5226,26,488,32709,11548,0,1475
32709,1399,32722,5336,11,501,32734,11548,10,1463
32734,1205,32748,5381,0,493,32764,11555,10,1446
32764,1263,32778,5392,0,490,32789,11560,0,1436
32789,1337,32803,5428,0,497,32814,11547,0,1445
32814,1402,32828,5373,0,506,32840,11546,9,1429
32840,1384,32853,5288,0,532,32865,11539,39,1427
32865,1482,32878,5257,14,511,32890,11537,41,1436
32890,1490,32903,5210,14,491,32915,11538,56,1427
32915,1568,32928,5210,11,505,32940,11532,38,1463
32940,1613,32954,5230,2,476,32970,11532,6,1466
32970,1809,32984,5204,2,478,33000,11569,6,1458
33000,1640,33014,5234,0,502,33030,11561,28,1463
33030,1751,33044,5288,0,515,33060,11574,33,1446
33060,1948,33074,5276,0,506,33085,11546,0,1439
33085,786,33099,5182,25,502,33111,11535,0,1430
33111,1461,33124,5127,13,497,33136,11548,25,1417
33136,1920,33150,5155,12,492,33166,11537,0,1426
33166,1919,33180,5181,11,466,33196,11525,0,1435
33196,1936,33210,5221,1,486,33226,11530,0,1457
33226,2037,33240,5270,0,491,33256,11536,1,1467
33256,1975,33270,5293,0,519,33286,11572,4,1443
33286,2034,33300,5246,0,498,33316,11563,19,1444
33316,2057,33330,5213,27,481,33341,11543,0,1446
33341,1934,33355,5197,20,476,33366,11563,0,1433
33366,1936,33381,5189,2,464,33397,11530,2,1431
33397,1946,33411,5209,0,475,33427,11543,7,1425
33427,2055,33441,5254,0,483,33457,11517,0,1425
33457,2045,33471,5267,10,481,33487,11520,0,1436
33487,2112,33501,5262,0,479,33517,11547,0,1444
33517,2105,33531,5216,24,487,33547,11514,0,1460
33547,2131,33561,5186,13,474,33577,11552,24,1448
33577,2156,33592,5178,0,453,33607,11536,28,1426
33607,2221,33622,5172,7,478,33637,11537,11,1432
33637,2160,33652,5159,0,472,33668,11556,18,1423
33668,2201,33682,5243,1,482,33698,11502,0,1403
33698,2172,33712,5240,5,490,33728,11530,4,1417
33728,2166,33742,5191,23,490,33758,11517,0,1412
33758,2127,33772,5169,18,473,33788,11514,0,1446
33788,2207,33803,5164,10,449,33818,11530,1,1442
33818,2135,33833,5161,2,469,33848,11536,26,1424
33848,1808,33863,5155,0,470,33878,11552,25,1428
33878,2223,33893,5171,0,508,33908,11532,23,1418
33908,2319,33923,5180,7,497,33939,11526,18,1405
33939,2289,33953,5223,7,494,33969,11524,0,1391
33969,2416,33983,5177,8,481,33999,11525,0,1404
33999,2332,34014,5194,10,492,34029,11526,0,1411
34029,2384,34044,5170,0,465,34059,11530,0,1423
34059,2235,34074,5150,0,477,34089,11556,0,1418
34089,2167,34104,5175,0,501,34119,11574,12,1431
34119,1997,34134,5181,10,505,34149,11549,20,1438
34149,2039,34164,5203,24,500,34179,11554,26,1425
34179,1923,34194,5200,5,477,34209,11541,28,1432
34209,2043,34225,5196,10,466,34240,11532,10,1420
34240,1991,34255,5169,10,460,34270,11522,0,1412
34270,1943,34285,5165,0,472,34300,11528,0,1423
34300,1971,34315,5158,0,511,34330,11515,0,1453
34330,1942,34345,5202,0,496,34360,11550,0,1468
34360,1935,34375,5217,10,495,34390,11569,4,1454
34390,1926,34405,5189,11,476,34420,11546,31,1462
34420,1961,34436,5193,29,480,34450,11562,30,1446
34450,1875,34466,5186,0,464,34480,11521,25,1445
34480,1855,34496,5158,0,481,34511,11550,0,1438
34511,2032,34526,5164,0,495,34541,11538,0,1435
34541,928,34556,5183,0,489,34571,11503,0,1433
34571,1654,34586,5192,15,475,34601,11546,0,1436
34601,1953,34616,5178,38,468,34631,11517,0,1444
34631,1946,34647,5161,9,473,34661,11563,0,1455
34661,1996,34677,5156,0,463,34691,11537,16,1443
34691,2035,34707,5154,0,484,34721,11545,20,1431
34721,2142,34737,5167,0,492,34751,11539,16,1432
34751,2116,34767,5154,0,495,34782,11524,8,1409
34782,2000,34797,5173,19,494,34812,11522,0,1404
34812,1915,34827,5179,29,485,34842,11517,0,1403
34842,1998,34857,5169,29,489,34872,11532,0,1401
34872,1936,34888,5159,0,464,34902,11609,0,1426
34902,2001,34918,5145,0,477,34932,11573,1,1427
34932,1936,34948,5159,0,488,34962,11529,13,1420
34962,1999,34978,5165,0,497,34992,11536,18,1420
34992,2013,35008,5194,19,502,35022,11552,8,1418
35022,1990,35038,5171,25,488,35053,11540,10,1409
35053,1897,35068,5149,20,478,35083,11529,0,1403
35083,1958,35099,5155,5,457,35113,11632,6,1411
35113,1984,35129,5152,0,482,35143,11607,0,1421
35143,2082,35159,5167,0,503,35173,11629,0,1452
35173,1904,35189,5174,1,510,35203,11576,0,1450
35203,1970,35219,5187,14,506,35233,11524,4,1447
35233,2177,35249,5183,27,489,35263,11545,28,1440
35263,1070,35279,5171,21,490,35293,11523,17,1445
35293,1934,35305,5172,35,475,35318,11578,18,1445
35318,2185,35330,5173,61,489,35344,11631,6,1439
35344,2239,35360,5160,0,505,35374,11589,0,1422
35374,2224,35390,5182,0,510,35404,11609,0,1433
35404,2195,35420,5179,6,491,35434,11617,0,1441
35434,2259,35450,5175,29,494,35464,11591,0,1447
35464,2272,35480,5161,5,487,35494,11563,0,1460
35494,2158,35506,5159,14,464,35519,11473,3,1463
35519,2093,35531,5159,24,486,35544,11464,24,1449
35544,2151,35556,5155,81,465,35569,11518,21,1435
35569,2109,35581,5175,13,491,35594,11563,16,1437
35594,2011,35606,5153,2,508,35620,11600,0,1432
35620,2079,35636,5176,3,498,35650,11601,0,1433
35650,2087,35666,5158,16,494,35680,11626,1,1442
35680,2059,35696,5144,10,482,35710,11629,0,1452
35710,2039,35722,5160,18,467,35735,11520,0,1445
35735,1974,35747,5150,36,474,35760,11478,0,1474
35760,2015,35772,5145,53,477,35785,11457,14,1450
35785,2031,35797,5146,26,497,35810,11481,11,1464
35810,2078,35822,5149,21,531,35835,11477,22,1444
35835,2098,35847,5151,8,502,35860,11548,1,1454
35860,2148,35872,5150,2,500,35886,11632,5,1417
35886,2176,35902,5153,4,472,35916,11545,0,1429
35916,2011,35933,5152,0,480,35946,11517,8,1441
35946,2035,35958,5168,44,468,35971,11518,0,1431
35971,2256,35983,5141,69,484,35996,11493,0,1441
35996,989,36008,5147,33,504,36021,11511,1,1465
36021,1779,36033,5161,37,517,36046,11442,0,1456
36046,2208,36058,5150,27,505,36071,11464,11,1446
36071,2176,36083,5143,5,515,36096,11488,5,1455
36096,2168,36108,5155,6,490,36121,11511,12,1437
36121,2182,36134,5141,7,488,36146,11527,18,1440
36146,2203,36159,5147,13,474,36172,11524,1,1438
36172,2157,36184,5154,64,478,36197,11511,12,1420
36197,2087,36209,5142,52,489,36222,11517,0,1435
36222,2085,36234,5139,21,504,36247,11519,0,1438
36247,2085,36259,5146,16,500,36272,11516,0,1444
36272,1947,36284,5160,35,512,36297,11485,0,1453
36297,1951,36309,5138,26,489,36322,11466,0,1460
36322,1958,36334,5141,0,485,36347,11442,18,1447
36347,1920,36360,5157,0,483,36372,11528,13,1447
36372,1802,36385,5135,0,464,36397,11518,15,1452
36397,1776,36410,5119,0,477,36422,11505,10,1443
36422,1828,36435,5133,0,488,36448,11524,10,1427
36448,1818,36460,5163,14,510,36473,11524,4,1421
36473,1776,36485,5144,28,495,36498,11517,0,1427
36498,1827,36510,5147,2,511,36523,11504,0,1423
36523,1817,36535,5138,4,486,36548,11521,0,1452
36548,1817,36561,5144,8,485,36573,11524,24,1450
36573,1756,36586,5118,0,449,36598,11525,17,1454
36598,1693,36611,5127,6,477,36623,11530,17,1462
36623,1744,36636,5127,0,481,36648,11524,17,1447
36648,1823,36661,5124,8,493,36673,11515,12,1449
36673,1689,36686,5110,0,490,36698,11520,0,1441
36698,1699,36711,5084,19,513,36724,11507,4,1419
36724,1881,36736,5133,21,492,36749,11500,0,1423
36749,2110,36761,5133,0,483,36774,11510,0,1411
36774,895,36787,5105,1,480,36799,11532,73,1447
36799,1721,36812,5125,3,478,36824,11526,42,1436
36824,1873,36837,5095,0,473,36849,11541,37,1463
36849,1845,36862,5136,0,503,36874,11529,27,1468
36874,1887,36887,5135,0,507,36899,11519,22,1452
36899,1920,36912,5117,12,508,36924,11522,15,1448
36924,1910,36937,5059,22,489,36949,11541,23,1443
36949,1905,36962,5085,10,480,36974,11523,8,1438
36974,1919,36988,5114,1,469,37000,11525,3,1447
37000,1968,37013,5124,0,462,37025,11524,25,1428
37025,1917,37038,5127,0,489,37050,11511,35,1422
37050,1843,37063,5118,0,511,37075,11516,80,1435
37075,1849,37088,5108,1,523,37100,11528,28,1440
37100,1882,37113,5106,8,497,37125,11514,28,1455
37125,1941,37138,5070,25,499,37150,11520,13,1464
37150,1855,37163,5070,7,484,37175,11527,9,1455
37175,1865,37189,5087,28,480,37205,11520,16,1446
37205,1874,37219,5136,1,473,37235,11534,20,1444
37235,1680,37249,5171,4,491,37260,11538,0,1452
37260,1638,37274,5200,0,492,37286,11500,0,1431
37286,1435,37299,5114,0,506,37311,11532,14,1423
37311,1262,37324,5108,0,498,37336,11535,45,1419
37336,1242,37349,5060,22,504,37361,11517,46,1432
37361,1194,37374,5051,11,488,37386,11521,36,1446
37386,1187,37399,5091,9,483,37411,11520,17,1450
37411,1139,37425,5151,0,466,37441,11514,0,1452
37441,1293,37455,5155,1,463,37471,11533,9,1460
37471,1223,37485,5195,0,484,37501,11532,32,1453
37501,1297,37515,5215,5,510,37526,11502,0,1433
37526,1543,37540,5144,0,511,37551,11522,0,1439
37551,1658,37565,5125,12,508,37577,11516,17,1420
37577,819,37590,5080,0,489,37602,11509,36,1416
37602,1686,37616,5087,9,489,37632,11512,0,1431
37632,1803,37646,5121,9,470,37662,11509,0,1446
37662,1947,37676,5169,0,470,37692,11514,0,1449
37692,2094,37706,5224,0,493,37722,11519,17,1450
37722,2198,37736,5221,6,498,37752,11531,4,1451
37752,2234,37766,5198,4,494,37782,11507,37,1438
37782,2326,37796,5126,26,488,37807,11506,0,1444
37807,2306,37821,5144,9,465,37832,11506,0,1426
37832,2199,37847,5134,0,457,37863,11503,5,1405
37863,2271,37877,5145,5,463,37893,11501,0,1417
37893,2225,37907,5197,0,464,37923,11500,0,1418
37923,2242,37937,5226,0,481,37953,11513,0,1434
37953,2223,37967,5205,13,493,37983,11508,2,1444
37983,2214,37997,5168,33,478,38013,11527,0,1440
38013,2125,38027,5135,23,463,38043,11533,12,1450
38043,2150,38058,5125,0,448,38073,11508,28,1431
38073,2113,38088,5114,2,457,38103,11518,8,1439
38103,2122,38118,5120,0,473,38134,11501,0,1414
38134,2081,38148,5217,0,497,38164,11490,7,1413
38164,2134,38178,5213,16,478,38194,11490,0,1416
38194,2070,38208,5182,8,495,38224,11483,0,1420
38224,2189,38238,5148,10,484,38254,11512,0,1437
38254,2192,38269,5130,0,476,38284,11515,2,1448
38284,2173,38299,5136,0,488,38314,11523,18,1445
38314,2133,38329,5112,0,470,38344,11520,29,1406
38344,2304,38359,5129,0,506,38374,11529,22,1416
38374,1278,38389,5153,0,486,38405,11492,13,1404
38405,1910,38419,5173,23,507,38435,11505,6,1387
38435,2159,38449,5144,11,503,38465,11501,0,1403
38465,2241,38480,5131,0,473,38495,11493,0,1399
38495,2181,38510,5113,0,454,38525,11503,2,1407
38525,2298,38540,5108,0,492,38555,11523,9,1437
38555,2242,38570,5135,0,495,38585,11527,16,1432
38585,2254,38600,5164,0,500,38615,11531,36,1433
38615,2105,38630,5155,15,498,38645,11534,18,1416
38645,2091,38660,5155,14,488,38676,11516,15,1414
38676,2002,38691,5133,0,473,38706,11517,13,1405
38706,2055,38721,5117,0,467,38736,11498,12,1415
38736,1962,38751,5127,0,473,38766,11495,0,1438
38766,2032,38781,5129,0,488,38796,11513,0,1447
38796,2047,38811,5156,0,491,38826,11518,0,1449
38826,2103,38841,5155,10,476,38856,11530,15,1457
38856,2031,38871,5153,8,463,38886,11513,19,1447
38886,2118,38902,5134,7,459,38916,11513,16,1432
38916,2017,38932,5118,0,458,38947,11517,5,1429
38947,2047,38962,5101,0,475,38977,11505,6,1422
38977,2025,38992,5108,0,481,39007,11496,11,1422
39007,2062,39022,5136,5,493,39037,11486,0,1424
39037,2059,39052,5133,2,492,39067,11504,0,1442
39067,1958,39082,5131,24,480,39097,11510,0,1450
39097,1865,39113,5113,0,467,39127,11507,14,1452
39127,1978,39143,5108,0,457,39157,11510,21,1434
39157,1855,39173,5099,8,483,39187,11500,16,1422
39187,1611,39203,5109,0,490,39217,11500,24,1412
39217,2079,39233,5148,5,504,39248,11496,9,1410
39248,2068,39263,5129,28,486,39278,11490,7,1394
39278,2043,39293,5132,14,474,39308,11484,0,1404
39308,2127,39324,5127,5,470,39338,11583,0,1423
39338,2215,39354,5114,0,462,39368,11555,0,1425
39368,2192,39384,5092,0,483,39398,11547,0,1424
39398,2126,39414,5121,0,488,39428,11512,21,1426
39428,2086,39444,5148,5,513,39458,11500,26,1421
39458,2037,39474,5138,19,522,39488,11505,10,1409
39488,1955,39504,5147,6,485,39519,11506,3,1413
39519,1996,39535,5128,21,478,39549,11573,0,1413
39549,2018,39565,5113,14,466,39579,11597,0,1414
39579,2006,39595,5115,5,474,39609,11585,0,1422
39609,2015,39625,5121,18,511,39639,11591,0,1448
39639,2035,39655,5136,0,509,39669,11529,0,1444
39669,1968,39685,5148,28,512,39699,11497,13,1466
39699,2021,39715,5136,17,471,39729,11523,20,1456
39729,1904,39746,5130,23,476,39759,11470,10,1445
39759,1852,39771,5127,42,466,39784,11578,25,1429
39784,1886,39796,5139,87,474,39810,11594,0,1443
39810,1902,39826,5117,0,500,39840,11563,0,1416
39840,1868,39856,5146,2,516,39870,11586,0,1443
39870,1911,39886,5148,24,518,39900,11577,0,1449
39900,2063,39916,5143,20,490,39930,11547,0,1460
39930,1194,39947,5148,3,488,39960,11432,0,1458
39960,1671,39972,5132,25,469,39985,11438,22,1465
39985,2037,39997,5130,43,480,40010,11462,0,1442
40010,2021,40022,5139,42,489,40035,11514,12,1436
40035,1997,40047,5133,18,507,40060,11582,15,1436
40060,2090,40072,5131,0,514,40086,11581,6,1438
40086,2109,40102,5155,11,510,40116,11562,4,1425
40116,2081,40132,5147,9,484,40146,11595,0,1432
40146,2098,40163,5124,7,467,40176,11491,0,1451
40176,1939,40188,5125,15,469,40201,11474,0,1456
40201,2036,40213,5128,67,493,40226,11415,0,1464
40226,2022,40238,5135,30,481,40251,11432,13,1455
40251,1968,40263,5131,19,497,40276,11472,23,1465
40276,2032,40288,5132,14,523,40301,11494,28,1440
40301,1991,40313,5140,9,497,40326,11551,21,1437
40326,2046,40338,5136,4,489,40352,11592,0,1430
40352,2071,40369,5124,15,498,40382,11478,0,1421
40382,1975,40394,5121,32,474,40407,11506,2,1438
40407,1968,40419,5128,47,498,40432,11484,0,1422
40432,1936,40444,5127,56,463,40457,11484,0,1446
40457,1923,40469,5141,12,509,40482,11468,0,1459
40482,2009,40494,5127,23,521,40507,11426,0,1464
40507,2027,40519,5124,27,504,40532,11454,14,1440
40532,2103,40544,5127,13,492,40557,11457,19,1460
40557,2160,40569,5115,4,474,40582,11468,22,1427
40582,2145,40595,5106,0,476,40607,11498,0,1449
40607,2039,40620,5121,0,477,40633,11484,0,1436
40633,2007,40645,5130,76,475,40658,11484,0,1425
40658,2134,40670,5125,32,493,40683,11482,10,1428
40683,2301,40695,5121,14,500,40708,11484,2,1423
40708,1423,40720,5142,10,498,40733,11479,0,1451
40733,2069,40745,5124,23,500,40758,11463,0,1470
40758,2165,40770,5142,0,490,40783,11416,0,1468
40783,2210,40796,5127,0,476,40808,11497,6,1450
40808,2179,40821,5115,0,473,40833,11488,13,1454
40833,2133,40846,5125,0,478,40858,11494,7,1442
40858,2147,40871,5117,0,489,40883,11493,1,1428
40883,2179,40896,5111,0,505,40909,11486,0,1441
40909,2195,40921,5122,22,506,40934,11481,6,1427
40934,2121,40946,5126,11,502,40959,11479,0,1415
40959,2117,40971,5127,18,489,40984,11471,0,1439
40984,2090,40996,5119,9,508,41009,11482,0,1433
41009,2007,41022,5098,0,474,41034,11484,28,1449
41034,1955,41047,5128,0,484,41059,11494,11,1464
41059,1981,41072,5096,0,484,41084,11501,25,1440
41084,2056,41097,5111,0,496,41109,11507,13,1444
41109,1991,41122,5117,0,507,41134,11492,20,1444
41134,2002,41147,5102,13,507,41159,11488,1,1430
41159,2096,41172,5063,21,500,41185,11481,10,1440
41185,2159,41197,5146,0,493,41210,11478,0,1423
41210,2157,41223,5119,8,472,41235,11490,46,1429
41235,2072,41248,5130,3,474,41260,11501,48,1429
41260,2071,41273,5137,0,484,41285,11493,32,1432
41285,2032,41298,5105,0,516,41310,11503,21,1450
41310,2000,41323,5109,0,497,41335,11499,17,1462
41335,2001,41348,5106,12,485,41360,11492,10,1453
41360,2039,41373,5039,19,504,41385,11484,17,1450
41385,1925,41398,5069,1,484,41410,11479,12,1439
41410,1935,41424,5090,17,477,41435,11495,0,1420
41435,2111,41449,5181,2,491,41461,11494,0,1429
41461,1627,41474,5114,0,489,41486,11495,22,1437
41486,1574,41499,5127,0,491,41511,11486,25,1415
41511,2025,41524,5107,2,499,41536,11498,66,1439
41536,2000,41549,5114,0,514,41561,11498,38,1431
41561,2071,41574,5090,14,510,41586,11496,18,1460
41586,2060,41599,5061,7,491,41611,11503,8,1466
41611,1980,41624,5077,19,487,41636,11480,4,1452
41636,2005,41650,5122,0,470,41666,11513,8,1451
41666,2043,41680,5126,0,491,41696,11499,10,1438
41696,1954,41710,5197,0,481,41721,11494,0,1437
41721,1878,41735,5172,0,505,41747,11485,0,1432
41747,1835,41760,5126,1,494,41772,11486,12,1421
41772,1820,41785,5087,17,516,41797,11505,44,1428
41797,1856,41810,5052,17,495,41822,11480,64,1432
41822,1893,41835,5083,10,481,41847,11502,27,1441
41847,1799,41861,5140,11,478,41877,11486,0,1459
41877,1855,41891,5140,2,470,41907,11508,6,1467
41907,1835,41921,5177,0,481,41937,11510,12,1450
41937,1871,41951,5216,0,512,41967,11510,33,1435
41967,1857,41981,5194,2,503,41992,11477,0,1426
41992,1815,42006,5142,13,500,42018,11491,0,1435
42018,1835,42031,5051,24,483,42043,11500,38,1419
42043,1833,42057,5115,6,485,42073,11472,13,1424
42073,1758,42087,5132,4,463,42103,11467,5,1428
42103,1881,42117,5167,0,482,42133,11469,0,1453
42133,1879,42147,5227,0,497,42163,11488,18,1458
42163,1890,42177,5220,0,508,42193,11497,13,1446
42193,1790,42207,5175,11,478,42223,11500,24,1452
42223,1979,42237,5127,9,486,42253,11497,27,1436
42253,1211,42268,5138,1,470,42283,11488,6,1426
42283,1620,42298,5119,2,449,42314,11482,9,1412
42314,1926,42328,5175,0,461,42344,11476,2,1413
42344,1961,42358,5230,0,483,42374,11463,0,1431
42374,1935,42388,5222,0,475,42404,11464,0,1439
42404,2007,42418,5162,15,488,42434,11487,3,1438
42434,1884,42448,5141,4,460,42464,11490,2,1462
42464,1943,42479,5144,0,455,42494,11498,13,1442
42494,1821,42509,5128,0,449,42524,11488,20,1440
42524,1856,42539,5099,0,474,42554,11493,19,1428
42554,1780,42569,5113,4,492,42585,11476,3,1418
42585,1786,42599,5191,0,487,42615,11456,0,1389
42615,1776,42629,5140,16,498,42645,11462,0,1414
42645,1867,42659,5132,21,490,42675,11467,0,1403
42675,1791,42690,5129,0,476,42705,11475,0,1428
42705,1850,42720,5122,5,478,42735,11494,0,1424
42735,1866,42750,5119,0,485,42765,11500,1,1427
42765,1862,42780,5114,0,498,42795,11492,26,1421
42795,1797,42810,5141,0,488,42825,11503,20,1414
42825,1913,42840,5145,26,490,42856,11510,7,1407
42856,1808,42870,5130,22,486,42886,11492,0,1402
42886,1840,42901,5113,2,469,42916,11482,12,1425
42916,1887,42931,5129,0,474,42946,11478,0,1423
42946,1923,42961,5110,0,485,42976,11484,0,1442
42976,1853,42991,5130,4,495,43006,11495,0,1448
43006,1861,43021,5159,2,480,43036,11517,8,1446
43036,2034,43051,5145,27,489,43066,11507,10,1443
43066,1083,43081,5141,15,485,43096,11511,21,1437
43096,1679,43112,5133,2,461,43126,11488,18,1428
43126,1990,43142,5100,0,461,43157,11483,0,1428
43157,1936,43172,5098,0,478,43187,11474,0,1428
43187,1967,43202,5113,0,485,43217,11470,0,1434
43217,2005,43232,5125,26,492,43247,11484,0,1439
43247,2023,43262,5126,17,490,43277,11468,1,1440
43277,2042,43292,5109,11,473,43307,11492,3,1451
43307,1985,43323,5104,3,461,43337,11490,9,1435
43337,1955,43353,5083,11,480,43367,11494,26,1430
43367,1959,43383,5091,0,476,43397,11496,26,1419
43397,1931,43413,5101,6,497,43428,11490,4,1413
43428,1726,43443,5130,8,505,43458,11478,0,1389
43458,1674,43473,5122,26,496,43488,11465,0,1407
43488,1614,43503,5128,0,485,43518,11474,0,1414
43518,1674,43534,5124,12,464,43548,11556,0,1412
43548,1612,43564,5102,0,472,43578,11507,4,1419
43578,1642,43594,5120,0,506,43608,11483,7,1419
43608,1714,43624,5107,0,519,43638,11484,20,1415
43638,1872,43654,5120,28,504,43668,11485,11,1399
43668,1950,43684,5140,21,496,43699,11470,11,1400
43699,1987,43714,5158,14,483,43729,11484,0,1392
43729,2047,43745,5102,11,496,43759,11576,0,1397
43759,2151,43775,5111,5,484,43789,11562,0,1406
43789,2160,43805,5097,0,478,43819,11556,0,1427
43819,2141,43835,5119,0,509,43849,11514,0,1433
43849,2146,43865,5140,28,511,43879,11492,10,1432
43879,2487,43895,5133,32,500,43909,11476,19,1444
43909,1467,43925,5148,30,494,43939,11479,15,1444
43939,2230,43951,5124,16,470,43964,11522,29,1445
43964,2273,43976,5133,29,472,43990,11560,0,1437
43990,2173,44006,5108,0,489,44020,11525,1,1425
44020,2298,44036,5121,5,510,44050,11558,0,1426
44050,2257,44066,5143,0,515,44080,11549,0,1432
44080,2359,44096,5152,6,502,44110,11559,0,1457
44110,2287,44126,5137,25,491,44140,11517,0,1457
44140,2219,44157,5123,0,479,44170,11413,10,1448
44170,2074,44182,5118,35,453,44195,11434,17,1446
44195,2007,44207,5133,64,484,44220,11455,24,1434
44220,2070,44232,5130,37,493,44245,11503,8,1435
44245,1991,44257,5127,0,514,44271,11550,3,1425
44271,2006,44287,5140,0,486,44301,11528,0,1425
44301,2066,44317,5128,16,502,44331,11544,0,1433
44331,1971,44347,5159,23,495,44361,11572,0,1429
44361,2064,44373,5124,24,489,44386,11472,0,1443
44386,1969,44398,5133,34,454,44411,11434,6,1458
44411,1923,44423,5127,50,487,44436,11402,0,1459
44436,1979,44448,5129,28,503,44461,11420,17,1465
44461,2009,44473,5120,22,517,44486,11420,18,1455
44486,1979,44498,5142,26,494,44511,11473,11,1436
44511,1994,44523,5137,18,509,44536,11513,8,1449
44536,2038,44548,5124,2,487,44562,11549,0,1421
44562,2077,44579,5123,0,470,44592,11457,7,1406
44592,1783,44604,5131,23,483,44617,11469,0,1440
44617,1863,44629,5129,64,468,44642,11465,0,1445
44642,1953,44654,5121,23,510,44667,11451,0,1449
44667,2178,44679,5121,0,499,44692,11431,0,1447
44692,974,44704,5122,29,492,44717,11412,7,1471
44717,1830,44729,5137,12,499,44742,11419,17,1456
44742,2109,44754,5135,13,485,44767,11443,17,1444
44767,2080,44780,5135,0,487,44792,11476,0,1431
44792,2018,44805,5139,1,487,44817,11458,0,1441
44817,2082,44830,5115,7,494,44843,11462,2,1413
44843,2146,44855,5137,59,500,44868,11463,7,1419
44868,2140,44880,5136,10,498,44893,11451,0,1429
44893,2098,44905,5139,13,513,44918,11465,0,1420
44918,2129,44930,5126,12,494,44943,11456,0,1449
44943,2035,44955,5139,20,498,44968,11437,0,1452
44968,1981,44980,5119,0,476,44993,11407,0,1460
44993,1878,45006,5136,1,489,45018,11484,22,1448
45018,1931,45031,5129,1,483,45043,11466,24,1455
45043,1937,45056,5109,0,485,45068,11491,13,1442
45068,1866,45081,5116,0,500,45093,11465,14,1448
45093,1841,45106,5113,0,512,45119,11462,7,1429
45119,1952,45131,5147,21,504,45144,11470,6,1407
45144,2000,45156,5121,22,490,45169,11480,0,1412
45169,2009,45181,5127,1,471,45194,11457,7,1428
45194,1987,45207,5113,0,476,45219,11470,44,1441
45219,1993,45232,5123,2,474,45244,11469,22,1458
45244,1920,45257,5105,0,481,45269,11458,21,1459
45269,1924,45282,5115,0,496,45294,11478,27,1449
45294,1947,45307,5116,0,527,45319,11480,14,1444
45319,1992,45332,5090,16,501,45344,11481,30,1437
45344,1914,45357,5061,18,498,45369,11466,2,1427
45369,1885,45382,5051,10,491,45394,11464,0,1445
45394,1905,45408,5088,1,490,45420,11478,10,1426
45420,2288,45433,5115,0,463,45445,11485,28,1417
45445,939,45458,5116,0,484,45470,11468,81,1427
45470,1683,45483,5090,0,490,45495,11470,29,1432
45495,2085,45508,5119,0,512,45520,11489,30,1449
45520,2143,45533,5109,0,510,45545,11486,10,1457
45545,2129,45558,5077,18,508,45570,11468,8,1444
45570,2121,45583,5037,18,501,45595,11486,5,1464
45595,2237,45608,5084,8,477,45620,11481,15,1441
45620,2237,45634,5121,2,468,45645,11475,0,1440
45645,2205,45659,5197,0,476,45670,11468,0,1439
45670,2079,45684,5214,0,475,45696,11478,8,1418
45696,2027,45709,5128,0,510,45721,11480,28,1423
45721,2005,45734,5111,0,520,45746,11483,35,1432
45746,1954,45759,5099,9,488,45771,11478,50,1428
45771,1868,45784,5040,25,503,45796,11481,14,1449
45796,1934,45809,5056,13,487,45821,11478,0,1460
45821,1957,45835,5094,0,479,45851,11480,0,1461
45851,1931,45865,5143,2,467,45881,11484,9,1447
45881,2046,45895,5164,0,501,45911,11483,19,1431
45911,1871,45925,5231,0,510,45936,11467,0,1425
45936,1948,45950,5138,0,512,45962,11469,17,1421
45962,1931,45975,5077,16,497,45987,11467,20,1422
45987,1891,46000,5058,30,493,46012,11476,59,1418
46012,1859,46025,5088,8,488,46037,11474,71,1427
46037,1949,46051,5129,1,471,46067,11460,0,1432
46067,1925,46081,5132,6,479,46097,11462,2,1443
46097,1990,46111,5164,0,490,46127,11476,8,1457
46127,1922,46141,5197,5,487,46157,11497,29,1445
46157,1897,46171,5187,19,508,46187,11492,26,1442
46187,2073,46201,5158,33,485,46212,11477,0,1433
46212,1193,46226,5121,11,475,46238,11477,0,1424
46238,1535,46252,5099,17,464,46268,11460,12,1428
46268,1933,46282,5135,0,467,46298,11469,0,1417
46298,1985,46312,5154,7,474,46328,11450,0,1423
46328,2014,46342,5213,0,481,46358,11462,1,1438
46358,2068,46372,5187,1,491,46388,11474,0,1457
46388,2055,46402,5157,32,473,46418,11492,6,1432
46418,2110,46432,5122,16,463,46448,11474,12,1439
46448,2028,46463,5115,0,455,46478,11480,15,1432
46478,1984,46493,5111,4,444,46508,11470,0,1426
46508,1917,46523,5097,0,466,46539,11473,11,1410
46539,1950,46553,5196,0,489,46569,11462,0,1413
46569,1875,46583,5187,0,476,46599,11458,0,1424
46599,1956,46613,5163,9,493,46629,11449,0,1404
46629,1894,46643,5121,11,483,46659,11439,0,1447
46659,1886,46674,5106,1,467,46689,11473,1,1436
46689,1854,46704,5113,0,472,46719,11461,9,1416
46719,1975,46734,5094,0,476,46749,11458,28,1419
46749,1877,46764,5107,0,504,46779,11470,14,1417
46779,1937,46794,5132,0,489,46810,11476,20,1412
46810,1808,46824,5149,10,491,46840,11455,21,1384
46840,1952,46854,5118,5,492,46870,11437,5,1414
46870,1866,46885,5115,22,489,46900,11455,4,1409
46900,1931,46915,5088,0,470,46930,11463,6,1423
46930,1840,46945,5097,0,482,46960,11488,0,1436
46960,1933,46975,5126,0,485,46990,11487,20,1423
46990,2130,47005,5125,0,509,47020,11479,23,1435
47020,950,47035,5143,23,496,47050,11486,14,1426
47050,1856,47065,5144,2,493,47080,11478,27,1422
47080,2038,47096,5128,2,472,47111,11456,1,1402
47111,1923,47126,5120,0,484,47141,11457,0,1415
47141,2009,47156,5120,0,472,47171,11442,1,1426
47171,1931,47186,5126,0,484,47201,11471,3,1446
47201,2027,47216,5138,0,476,47231,11466,0,1462
47231,1940,47246,5130,20,482,47261,11488,16,1442
47261,1935,47276,5147,17,456,47291,11498,14,1459
47291,1808,47307,5119,0,459,47321,11471,21,1420
47321,1949,47337,5109,7,459,47351,11468,28,1423
47351,1873,47367,5104,0,485,47382,11484,2,1407
47382,1867,47397,5099,0,486,47412,11467,11,1411
47412,1842,47427,5122,0,485,47442,11441,0,1409
47442,1927,47457,5137,7,483,47472,11466,0,1426
47472,1906,47487,5117,9,464,47502,11465,0,1439
47502,1903,47518,5109,9,460,47532,11492,0,1437
47532,1855,47548,5088,2,480,47562,11475,15,1430
47562,1904,47578,5093,0,468,47592,11460,31,1426
47592,1859,47608,5098,0,512,47622,11471,11,1403
47622,1978,47638,5114,4,510,47653,11461,9,1403
47653,1910,47668,5135,9,498,47683,11451,0,1390
47683,1968,47698,5139,7,501,47713,11446,0,1400
47713,1856,47729,5115,0,477,47743,11548,0,1397
47743,1619,47759,5103,0,472,47773,11513,0,1426
47773,1514,47789,5107,0,472,47803,11483,0,1431
47803,1803,47819,5119,0,505,47833,11458,14,1426
47833,551,47849,5131,8,510,47863,11465,24,1420
47863,1599,47879,5134,32,491,47893,11460,12,1420
47893,1667,47909,5119,12,478,47924,11466,29,1417
47924,1724,47940,5122,5,482,47954,11478,1,1403
47954,1837,47970,5100,0,469,47984,11545,7,1414
47984,1939,48000,5112,0,485,48014,11551,0,1419
48014,2054,48030,5098,0,509,48044,11544,0,1444
48044,2128,48060,5134,7,493,48074,11499,0,1460
48074,2114,48090,5139,30,501,48104,11472,9,1447
48104,2098,48120,5130,30,485,48134,11461,5,1458
48134,2103,48151,5100,16,472,48164,11436,6,1456
48164,2064,48176,5128,35,471,48189,11495,13,1427
48189,2080,48201,5121,95,478,48215,11554,0,1433
48215,2135,48231,5103,0,513,48245,11518,0,1415
48245,2115,48261,5124,0,508,48275,11546,0,1439
48275,2098,48291,5139,16,504,48305,11543,0,1440
48305,1936,48321,5121,20,499,48335,11527,0,1465
48335,1955,48352,5128,18,488,48365,11383,5,1455
48365,1798,48377,5119,25,479,48390,11382,21,1442
48390,1800,48402,5133,43,464,48415,11417,22,1453
48415,1917,48427,5116,21,491,48440,11432,30,1437
48440,1951,48452,5124,19,511,48465,11478,13,1443
48465,1851,48477,5109,10,527,48491,11532,21,1432
48491,1911,48507,5127,5,511,48521,11500,9,1409
48521,1968,48537,5127,0,475,48551,11526,4,1430
48551,1802,48568,5125,0,477,48581,11433,0,1429
48581,1842,48593,5140,36,483,48606,11450,0,1453
48606,1841,48618,5121,58,483,48631,11407,7,1462
48631,2158,48643,5116,32,472,48656,11384,0,1451
48656,969,48668,5132,7,503,48681,11409,22,1452
48681,1783,48693,5117,14,495,48706,11414,17,1448
48706,1986,48718,5130,16,507,48731,11467,17,1433
48731,1981,48743,5132,6,488,48756,11524,22,1433
48756,1977,48768,5120,0,486,48782,11540,1,1449
48782,1953,48794,5133,23,477,48807,11445,0,1427
48807,1943,48819,5110,36,484,48832,11454,1,1451
48832,2028,48844,5121,49,479,48857,11436,0,1438
48857,2113,48869,5129,8,497,48882,11450,0,1452
48882,2096,48894,5126,0,503,48907,11417,0,1462
48907,1991,48919,5124,19,511,48932,11378,9,1463
48932,2038,48944,5147,17,494,48957,11403,13,1443
48957,2081,48969,5123,7,486,48982,11418,17,1459
48982,2098,48995,5121,3,487,49007,11458,0,1426
49007,2037,49020,5100,1,465,49032,11464,8,1435
49032,2115,49045,5118,0,491,49058,11453,0,1443
49058,2151,49070,5131,35,505,49083,11432,10,1423
49083,2118,49095,5119,28,523,49108,11454,4,1420
49108,2075,49120,5131,28,499,49133,11459,0,1429
49133,2198,49145,5134,14,488,49158,11420,0,1432
49158,2237,49170,5125,9,494,49183,11421,0,1451
49183,2146,49195,5119,4,471,49208,11380,0,1457
49208,2066,49221,5107,0,486,49233,11449,2,1455
49233,2163,49246,5121,0,462,49258,11451,22,1455
49258,2192,49271,5095,0,484,49283,11465,0,1441
49283,2037,49296,5109,0,499,49308,11443,5,1436
49308,2106,49321,5104,7,516,49334,11456,11,1425
49334,2135,49346,5123,3,492,49359,11443,7,1423
49359,2171,49371,5123,25,487,49384,11449,0,1423
49384,2174,49396,5118,15,487,49409,11449,0,1418
49409,2289,49422,5105,0,475,49434,11467,24,1455
49434,1424,49447,5108,0,464,49459,11457,17,1443
49459,2034,49472,5105,0,476,49484,11463,16,1444
49484,2096,49497,5116,0,514,49509,11448,11,1446
49509,2087,49522,5118,0,515,49534,11450,12,1432
49534,2133,49547,5086,18,513,49559,11470,23,1433
49559,2213,49572,5053,19,513,49584,11454,0,1426
49584,2173,49597,5074,19,502,49610,11447,4,1434
49610,2239,49623,5113,1,480,49635,11446,25,1426
49635,2234,49648,5114,5,480,49660,11453,40,1432
49660,2096,49673,5091,0,498,49685,11466,54,1433
49685,2008,49698,5112,0,494,49710,11462,23,1436
49710,1995,49723,5096,0,521,49735,11467,13,1432
49735,1997,49748,5090,0,526,49760,11468,22,1462
49760,2063,49773,5074,24,521,49785,11462,15,1438
49785,1974,49798,5054,25,498,49810,11432,9,1450
49810,1997,49823,5069,26,492,49835,11450,9,1429
49835,2034,49849,5117,0,474,49860,11446,0,1438
49860,2063,49874,5202,0,477,49886,11439,1,1425
49886,1965,49899,5107,0,457,49911,11454,33,1422
49911,1966,49924,5109,0,502,49936,11449,38,1419
49936,2073,49949,5105,5,510,49961,11445,57,1429
49961,2010,49974,5086,21,488,49986,11445,21,1424
49986,1982,49999,5029,21,494,50011,11442,0,1476
50011,1998,50024,5064,15,492,50036,11453,20,1447
50036,2043,50050,5081,14,480,50066,11473,0,1439
50066,2124,50080,5123,0,484,50096,11464,6,1456
50096,2081,50110,5164,0,479,50121,11447,0,1447
50121,1989,50135,5191,0,495,50146,11463,0,1425
50146,2055,50160,5150,22,516,50172,11442,10,1434
50172,2229,50185,5087,6,493,50197,11451,29,1418
50197,1301,50210,5036,18,512,50222,11461,46,1437
50222,1950,50235,5073,1,477,50247,11435,53,1429
50247,1987,50261,5094,31,482,50277,11430,0,1451
50277,2150,50291,5131,0,475,50307,11447,0,1433
50307,2068,50321,5148,0,488,50337,11465,7,1452
50337,2165,50351,5201,0,503,50367,11470,24,1444
50367,2062,50381,5196,6,511,50397,11449,32,1441
50397,2065,50411,5187,19,493,50422,11455,0,1435
50422,2015,50436,5113,17,493,50448,11453,25,1410
50448,1923,50461,5068,14,490,50473,11461,52,1422
50473,1931,50487,5112,13,485,50503,11430,0,1431
50503,1845,50517,5138,2,484,50533,11447,0,1443
50533,1920,50547,5169,0,484,50563,11436,0,1438
50563,1869,50577,5197,0,509,50593,11469,13,1440
50593,1922,50607,5191,11,492,50623,11468,1,1457
50623,1963,50637,5172,21,489,50653,11477,17,1437
50653,1941,50667,5115,16,471,50678,11462,0,1437
50678,1935,50693,5115,0,473,50708,11447,17,1423
50708,1936,50723,5110,0,446,50739,11438,20,1410
50739,1962,50753,5174,0,475,50769,11433,2,1418
50769,1904,50783,5214,18,486,50799,11430,1,1423
50799,1982,50813,5173,0,490,50829,11430,0,1443
50829,1950,50843,5140,10,488,50859,11437,0,1455
50859,1999,50873,5117,12,466,50889,11457,0,1440
50889,1905,50904,5116,5,469,50919,11453,21,1442
50919,1990,50934,5100,0,457,50949,11457,10,1427
50949,2222,50964,5106,0,477,50979,11442,25,1419
50979,1330,50994,5106,0,479,51010,11436,10,1416
51010,1983,51024,5196,0,501,51040,11429,2,1407
51040,2032,51054,5160,36,495,51070,11425,3,1418
51070,1938,51084,5105,6,485,51100,11444,0,1404
51100,1939,51115,5112,2,462,51130,11415,0,1437
51130,1877,51145,5121,0,475,51160,11467,0,1439
51160,1978,51175,5104,0,489,51190,11462,12,1414
51190,1894,51205,5104,0,509,51220,11457,29,1418
51220,1792,51235,5140,0,496,51250,11459,16,1421
51250,1781,51265,5141,25,493,51281,11445,18,1400
51281,1746,51295,5113,2,488,51311,11458,2,1394
51311,1727,51326,5103,5,480,51341,11449,5,1407
51341,1765,51356,5102,0,450,51371,11444,0,1414
51371,1819,51386,5102,0,472,51401,11461,0,1436
51401,1803,51416,5105,0,513,51431,11472,0,1438
51431,1833,51446,5136,0,478,51461,11488,5,1441
51461,1827,51476,5152,19,492,51491,11469,18,1440
51491,1874,51506,5134,6,479,51521,11481,9,1427
51521,1838,51537,5109,0,463,51552,11456,11,1428
51552,1904,51567,5104,0,465,51582,11454,0,1416
51582,1927,51597,5096,0,467,51612,11440,0,1400
51612,1922,51627,5096,0,502,51642,11429,0,1424
51642,1998,51657,5116,5,491,51672,11443,0,1434
51672,1895,51687,5129,13,487,51702,11452,0,1447
51702,1877,51717,5115,24,497,51732,11453,5,1442
51732,2186,51748,5110,0,469,51762,11455,14,1450
51762,670,51778,5088,0,468,51792,11460,29,1422
51792,1815,51808,5097,0,475,51822,11455,5,1412
51822,1965,51838,5090,0,500,51853,11448,4,1420
51853,2044,51868,5121,0,486,51883,11432,3,1394
51883,2083,51898,5125,18,494,51913,11426,0,1409
51913,2151,51928,5104,6,490,51943,11439,0,1414
51943,2086,51959,5102,8,482,51973,11492,0,1436
51973,2072,51989,5091,7,478,52003,11485,0,1418
52003,2015,52019,5093,0,496,52033,11457,15,1405
52033,2009,52049,5106,0,507,52063,11440,22,1385
52063,1968,52079,5122,4,492,52093,11458,20,1392
52093,2030,52109,5118,16,489,52124,11440,13,1386
52124,1914,52139,5119,15,491,52154,11443,8,1382
52154,1987,52170,5096,8,497,52184,11522,0,1397
52184,1958,52200,5090,2,474,52214,11526,0,1388
52214,2062,52230,5085,0,488,52244,11517,0,1413
52244,2057,52260,5092,11,498,52274,11484,11,1428
52274,2026,52290,5135,12,511,52304,11449,21,1431
52304,1979,52320,5122,33,516,52334,11431,17,1447
52334,1951,52350,5121,14,504,52364,11458,6,1415
52364,1968,52381,5115,3,487,52395,11463,14,1441
52395,2054,52411,5101,0,485,52425,11476,7,1421
52425,1951,52441,5100,0,478,52455,11508,0,1436
52455,2016,52471,5115,0,503,52485,11522,0,1427
52485,1914,52501,5131,12,501,52515,11528,0,1440
52515,2032,52531,5133,28,507,52545,11476,0,1453
52545,2253,52561,5114,16,496,52575,11437,12,1455
52575,1243,52592,5113,2,477,52605,11385,28,1452
52605,1852,52617,5118,35,473,52630,11426,13,1441
52630,1933,52642,5111,49,486,52655,11484,29,1428
52655,2059,52667,5109,26,509,52681,11533,15,1428
52681,2041,52697,5126,7,502,52711,11504,0,1434
52711,2131,52727,5139,11,505,52741,11538,0,1431
52741,2169,52757,5134,6,493,52771,11517,0,1444
52771,2142,52787,5118,17,493,52801,11516,0,1454
52801,2018,52813,5123,4,464,52826,11375,0,1461
52826,1910,52838,5124,38,493,52851,11379,0,1448
52851,1966,52863,5100,46,480,52876,11375,28,1443
52876,2032,52888,5108,30,498,52901,11397,34,1447
52901,1987,52913,5116,4,494,52926,11462,20,1450
52926,2031,52938,5121,13,506,52951,11503,14,1428
52951,2176,52963,5103,20,487,52977,11515,0,1424
52977,2193,52993,5126,9,504,53007,11490,0,1421
53007,2091,53019,5111,17,477,53032,11421,0,1424
53032,2129,53044,5130,38,480,53057,11426,0,1442
53057,2102,53069,5119,48,487,53082,11439,1,1447
53082,2019,53094,5109,30,509,53107,11372,0,1458
53107,2103,53119,5113,18,514,53132,11373,0,1446
53132,2103,53144,5106,15,513,53157,11397,29,1461
53157,2167,53169,5104,15,510,53182,11387,18,1441
53182,2095,53194,5109,11,485,53207,11444,14,1432
53207,1996,53220,5102,5,485,53233,11447,0,1425
53233,1959,53245,5124,25,464,53258,11427,11,1425
53258,1978,53270,5126,55,478,53283,11428,16,1414
53283,2047,53295,5126,55,484,53308,11429,0,1434
53308,1904,53320,5121,21,514,53333,11400,0,1434
53333,1515,53345,5123,35,504,53358,11413,0,1446
53358,2032,53370,5125,10,505,53383,11395,0,1451
53383,2041,53395,5116,20,498,53408,11356,6,1455
53408,1995,53420,5119,0,484,53433,11389,12,1455
53433,2053,53446,5121,9,471,53458,11440,20,1437
53458,2007,53471,5115,0,473,53483,11419,0,1426
53483,2032,53496,5106,5,483,53508,11445,3,1443
53508,2013,53521,5125,0,499,53534,11411,7,1426
53534,2032,53546,5105,23,523,53559,11427,1,1413
53559,1974,53571,5138,0,505,53584,11419,0,1423
53584,1815,53596,5127,17,485,53609,11425,0,1418
53609,1922,53621,5123,10,482,53634,11414,0,1444
53634,1918,53647,5103,4,486,53659,11443,28,1462
53659,1877,53672,5113,4,471,53684,11438,11,1455
53684,1819,53697,5098,0,485,53709,11440,11,1456
53709,1837,53722,5108,0,507,53734,11429,15,1444
53734,1909,53747,5119,0,516,53759,11444,0,1442
53759,1827,53772,5091,0,490,53784,11423,6,1420
53784,1846,53797,5052,27,518,53810,11428,0,1430
53810,1995,53822,5118,0,497,53835,11411,9,1420
53835,1989,53848,5127,14,486,53860,11438,32,1429
53860,1914,53873,5121,0,478,53885,11430,60,1431
53885,1793,53898,5115,8,482,53910,11434,30,1448
53910,1814,53923,5093,0,496,53935,11425,9,1449
53935,1903,53948,5110,0,509,53960,11440,16,1461
53960,1837,53973,5082,0,518,53985,11442,24,1448
53985,1795,53998,5082,18,499,54010,11448,7,1456
54010,1891,54023,5028,8,476,54035,11436,4,1434
54035,2046,54048,5072,11,496,54060,11432,0,1440
54060,1441,54074,5111,3,474,54086,11429,0,1421
54086,1489,54099,5116,0,465,54111,11438,26,1414
54111,2001,54124,5089,0,480,54136,11425,57,1448
54136,2095,54149,5113,0,520,54161,11440,44,1425
54161,2015,54174,5094,0,518,54186,11434,14,1445
54186,2019,54199,5075,15,496,54211,11449,11,1462
54211,2122,54224,5035,3,506,54236,11435,8,1451
54236,2150,54249,5075,25,508,54261,11448,12,1439
54261,2121,54275,5092,7,482,54291,11446,4,1440
54291,2030,54305,5109,5,480,54316,11434,0,1438
54316,1963,54330,5201,0,474,54341,11439,0,1446
54341,1911,54355,5181,0,505,54367,11435,2,1424
54367,1833,54380,5095,1,513,54392,11443,29,1413
54392,1904,54405,5089,26,503,54417,11438,37,1429
54417,1884,54430,5073,23,508,54442,11423,29,1427
54442,1856,54455,5062,6,495,54467,11443,24,1452
54467,1854,54481,5087,17,493,54497,11419,0,1441
54497,1945,54511,5106,0,478,54527,11463,0,1454
54527,1911,54541,5123,0,476,54557,11461,20,1444
54557,1969,54571,5198,0,504,54587,11455,24,1436
54587,1941,54601,5196,0,503,54612,11434,0,1421
54612,1936,54626,5113,0,528,54638,11436,1,1427
54638,1886,54651,5034,14,481,54663,11424,27,1412
54663,1867,54676,5045,2,495,54688,11438,47,1430
54688,1842,54702,5086,6,485,54718,11423,10,1432
54718,1841,54732,5118,0,471,54748,11432,0,1445
54748,1823,54762,5149,0,489,54778,11437,0,1465
54778,1779,54792,5217,7,507,54808,11435,23,1441
54808,2102,54822,5189,3,489,54838,11458,16,1455
54838,1104,54852,5155,15,500,54868,11463,21,1440
54868,1921,54882,5105,13,478,54893,11437,0,1432
54893,2000,54908,5112,21,486,54924,11431,19,1434
54924,1952,54938,5117,0,466,54954,11420,4,1413
54954,2115,54968,5148,0,473,54984,11417,0,1434
54984,2067,54998,5197,0,486,55014,11430,0,1438
55014,2178,55028,5186,0,503,55044,11411,0,1431
55044,2000,55058,5134,13,472,55074,11430,0,1442
55074,1986,55088,5087,14,473,55104,11429,21,1440
55104,1906,55119,5027,0,442,55134,11439,28,1445
55134,1981,55149,5010,0,454,55164,11424,20,1423
55164,1882,55179,5012,0,448,55195,11423,24,1405
