74,2257,89,4408,14,444,105,11362,5,1403
105,2176,119,4386,13,449,135,11363,1,1380
135,2229,150,4385,11,433,165,11342,4,1407
165,2133,180,4372,0,448,195,11366,0,1411
195,2190,210,4392,0,434,225,11353,0,1427
225,2080,240,4375,0,467,255,11379,0,1435
255,2172,270,4399,21,464,285,11398,13,1426
285,2129,300,4392,31,444,315,11376,31,1415
315,2146,330,4401,8,438,345,11378,21,1427
345,2096,361,4383,19,436,376,11351,10,1408
376,2000,391,4382,0,441,406,11357,8,1390
406,1794,421,4364,0,434,436,11339,0,1422
436,2071,451,4387,5,463,466,11331,0,1416
466,726,481,4407,5,457,496,11347,3,1443
496,1681,511,4404,22,437,526,11349,0,1437
526,1889,541,4390,11,432,556,11387,0,1438
556,1894,572,4378,7,429,586,11350,28,1433
586,1911,602,4364,0,447,616,11368,37,1410
616,1883,632,4363,0,424,646,11353,9,1412
646,1881,662,4358,0,452,677,11372,5,1407
677,1905,692,4380,1,470,707,11340,10,1392
707,1811,722,4378,39,456,737,11332,0,1395
737,1788,752,4381,22,430,767,11347,0,1391
767,1792,783,4361,0,429,797,11427,3,1402
797,1903,813,4362,0,451,827,11385,6,1410
827,1999,843,4359,0,439,857,11357,20,1388
857,2013,873,4370,0,477,887,11354,29,1412
887,2058,903,4389,11,460,917,11350,13,1385
917,2030,933,4404,4,460,948,11369,19,1395
948,1986,963,4386,8,435,978,11357,0,1391
978,1954,994,4385,0,441,1008,11418,0,1408
1008,1983,1024,4362,4,447,1038,11445,0,1406
1038,1997,1054,4357,0,447,1068,11423,0,1427
1068,2032,1084,4385,0,474,1098,11406,3,1454
1098,2078,1114,4394,23,462,1128,11360,10,1430
1128,2114,1144,4393,34,468,1158,11369,8,1448
1158,2131,1174,4381,30,467,1188,11362,31,1421
1188,2271,1200,4392,0,435,1213,11396,17,1427
1213,2275,1225,4394,45,435,1239,11440,2,1427
1239,1616,1255,4375,2,456,1269,11386,0,1413
1269,2307,1285,4383,0,453,1299,11452,1,1433
1299,2302,1315,4391,2,455,1329,11447,0,1424
1329,2378,1345,4397,31,470,1359,11437,0,1440
1359,2310,1375,4404,11,435,1389,11403,0,1455
1389,2291,1406,4381,2,449,1419,11289,0,1451
1419,2175,1431,4384,26,431,1444,11298,31,1439
1444,2066,1456,4382,62,438,1469,11339,21,1431
1469,1953,1481,4379,21,463,1494,11381,13,1432
1494,1906,1506,4391,0,468,1520,11432,13,1418
1520,1815,1536,4392,1,448,1550,11415,4,1414
1550,1914,1566,4375,20,457,1580,11449,0,1423
1580,1802,1596,4387,3,433,1610,11444,0,1423
1610,1904,1622,4369,0,436,1635,11344,0,1437
1635,1919,1647,4382,33,450,1660,11323,4,1449
1660,1904,1672,4386,67,438,1685,11265,0,1450
1685,1955,1697,4381,8,464,1710,11309,0,1447
1710,1936,1722,4382,21,463,1735,11315,5,1435
1735,1939,1747,4388,10,468,1760,11344,24,1423
1760,1914,1772,4373,7,448,1785,11376,11,1429
1785,1904,1797,4393,8,458,1811,11427,1,1410
1811,1911,1828,4377,7,450,1841,11343,0,1409
1841,1763,1853,4381,34,431,1866,11339,0,1409
1866,1787,1878,4387,52,447,1891,11332,0,1429
1891,1762,1903,4367,34,458,1916,11338,0,1438
1916,1674,1928,4379,10,460,1941,11315,5,1432
1941,1616,1953,4378,14,452,1966,11271,0,1452
1966,1882,1978,4380,0,478,1991,11276,12,1433
1991,592,2003,4378,18,457,2016,11312,14,1449
2016,1350,2029,4375,3,433,2041,11348,12,1429
2041,1692,2054,4370,0,423,2066,11347,1,1427
2066,1721,2079,4368,0,449,2092,11339,0,1415
2092,1824,2104,4390,38,443,2117,11345,0,1419
2117,1906,2129,4389,31,474,2142,11350,0,1410
2142,1929,2154,4380,11,471,2167,11343,0,1428
2167,2071,2179,4380,12,468,2192,11328,0,1404
2192,2176,2204,4370,26,463,2217,11327,0,1435
2217,2132,2229,4391,0,453,2242,11282,5,1467
2242,2002,2255,4375,0,424,2267,11356,16,1449
2267,2013,2280,4375,8,440,2292,11356,13,1441
2292,2006,2305,4355,0,436,2317,11352,5,1445
2317,2000,2330,4382,0,457,2342,11345,10,1422
2342,1971,2355,4361,0,455,2367,11351,0,1417
2367,2000,2380,4348,2,466,2393,11346,2,1404
2393,2085,2405,4397,24,482,2418,11329,5,1419
2418,2067,2430,4392,11,466,2443,11330,0,1417
2443,2017,2456,4384,0,453,2468,11352,54,1433
2468,1989,2481,4393,0,426,2493,11335,38,1434
2493,1939,2506,4361,0,442,2518,11362,7,1456
2518,1981,2531,4358,0,456,2543,11342,22,1445
2543,1921,2556,4359,0,473,2568,11351,10,1438
2568,1963,2581,4351,6,469,2593,11352,21,1435
2593,1987,2606,4332,6,469,2618,11379,0,1426
2618,2019,2631,4297,0,453,2643,11343,0,1433
2643,1999,2656,4320,10,449,2669,11331,0,1411
2669,2042,2682,4367,0,431,2694,11336,33,1405
2694,2021,2707,4367,0,441,2719,11350,38,1416
2719,2094,2732,4365,0,445,2744,11337,52,1421
2744,1577,2757,4368,0,470,2769,11351,30,1427
2769,1564,2782,4358,0,486,2794,11347,4,1461
2794,2207,2807,4350,9,457,2819,11351,10,1441
2819,2094,2832,4304,4,473,2844,11350,19,1449
2844,2169,2857,4321,4,455,2869,11346,18,1439
2869,2221,2883,4357,25,433,2899,11353,12,1418
2899,2096,2913,4392,3,455,2924,11351,0,1418
2924,2013,2938,4460,0,442,2950,11350,0,1419
2950,2125,2963,4375,0,458,2975,11361,12,1413
2975,2000,2988,4374,0,487,3000,11355,35,1399
3000,1817,3013,4357,28,452,3025,11336,44,1414
3025,1712,3038,4307,16,449,3050,11345,21,1416
3050,1733,3063,4297,0,448,3075,11345,9,1447
3075,1735,3089,4338,19,454,3105,11357,0,1458
3105,1712,3119,4379,0,432,3135,11373,7,1435
3135,1830,3149,4408,0,436,3165,11368,11,1444
3165,1709,3179,4476,0,465,3190,11355,0,1428
3190,1680,3204,4406,0,476,3215,11347,0,1431
3215,1618,3229,4384,9,465,3241,11348,3,1413
3241,1602,3254,4285,32,459,3266,11355,47,1417
3266,1655,3279,4343,14,436,3291,11336,65,1432
3291,1714,3305,4357,6,435,3321,11333,0,1419
3321,1765,3335,4373,0,433,3351,11339,0,1440
3351,1926,3365,4398,0,447,3381,11344,12,1431
3381,1941,3395,4481,0,471,3411,11364,15,1439
3411,1973,3425,4456,0,463,3441,11359,31,1447
3441,1951,3455,4434,2,463,3471,11357,22,1404
3471,2357,3485,4396,7,440,3496,11344,0,1421
3496,1253,3511,4378,10,433,3527,11344,4,1423
3527,1974,3541,4374,0,434,3557,11340,5,1415
3557,1936,3571,4413,0,442,3587,11347,0,1420
3587,1993,3601,4472,0,439,3617,11339,0,1426
3617,1955,3631,4462,1,465,3647,11352,0,1441
3647,2103,3661,4423,8,447,3677,11364,2,1444
3677,2126,3691,4391,26,429,3707,11381,14,1442
3707,2087,3722,4377,12,426,3737,11370,16,1428
3737,1918,3752,4379,8,408,3767,11349,6,1420
3767,1911,3782,4367,0,429,3798,11335,0,1418
3798,1919,3812,4475,0,438,3828,11331,0,1404
3828,2031,3842,4452,0,466,3858,11339,0,1410
3858,2022,3872,4437,18,457,3888,11309,0,1408
3888,2094,3902,4377,22,444,3918,11333,0,1428
3918,2075,3933,4376,24,427,3948,11351,0,1426
3948,2061,3963,4363,13,430,3978,11354,9,1424
3978,1925,3993,4377,7,440,4008,11356,12,1426
4008,1949,4023,4381,0,463,4038,11370,18,1408
4038,1823,4053,4390,1,471,4068,11352,3,1392
4068,1866,4083,4410,25,472,4099,11341,0,1393
4099,1886,4113,4396,27,446,4129,11338,0,1390
4129,1999,4144,4394,28,438,4159,11324,0,1380
4159,1840,4174,4372,1,434,4189,11337,0,1394
4189,1950,4204,4367,0,436,4219,11331,0,1414
4219,2013,4234,4383,0,455,4249,11358,0,1414
4249,1200,4264,4386,0,450,4279,11380,6,1429
4279,1700,4294,4426,21,455,4309,11360,8,1410
4309,2126,4324,4407,17,439,4339,11381,8,1408
4339,2097,4355,4391,16,435,4370,11359,14,1402
4370,2063,4385,4385,5,444,4400,11347,0,1405
4400,1946,4415,4372,0,421,4430,11337,0,1408
4430,2063,4445,4381,0,450,4460,11328,0,1426
4460,1979,4475,4404,0,460,4490,11338,0,1421
4490,1968,4505,4388,23,459,4520,11356,0,1443
4520,1861,4535,4385,22,445,4550,11366,17,1437
4550,1911,4566,4380,11,435,4580,11345,27,1435
4580,1858,4596,4369,0,416,4610,11341,6,1417
4610,1956,4626,4361,0,451,4640,11350,24,1402
4640,1858,4656,4381,0,455,4671,11335,0,1392
4671,1947,4686,4387,0,467,4701,11327,0,1392
4701,1847,4716,4385,7,465,4731,11327,0,1391
4731,1875,4746,4393,14,449,4761,11333,0,1407
4761,1802,4777,4371,13,426,4791,11396,0,1420
4791,1827,4807,4365,0,444,4821,11370,11,1416
4821,1706,4837,4353,0,440,4851,11348,10,1405
4851,1853,4867,4370,0,461,4881,11347,25,1390
4881,1901,4897,4389,0,471,4911,11334,11,1389
4911,2045,4927,4399,10,465,4942,11348,14,1378
4942,1840,4957,4380,19,452,4972,11340,11,1376
4972,1957,4988,4383,10,458,5002,11418,1,1388
5002,2066,5018,4383,0,436,5032,11412,0,1395
5032,1174,5048,4368,0,443,5062,11421,0,1403
5062,1830,5078,4384,0,453,5092,11372,0,1415
5092,2227,5108,4387,0,468,5122,11344,12,1410
5122,2225,5138,4394,28,474,5152,11344,22,1415
5152,2349,5168,4403,16,448,5182,11340,6,1426
5182,2261,5199,4396,14,430,5213,11359,19,1414
5213,2404,5229,4387,0,435,5243,11366,4,1405
5243,2302,5259,4359,4,434,5273,11406,0,1421
5273,2314,5289,4381,0,473,5303,11433,0,1409
5303,2265,5319,4389,0,471,5333,11413,0,1449
5333,2314,5349,4398,10,460,5363,11399,2,1446
5363,2274,5379,4407,26,446,5393,11356,15,1435
5393,2320,5410,4386,18,446,5423,11266,20,1446
5423,2133,5435,4371,45,438,5448,11320,30,1419
5448,2193,5460,4386,73,433,5473,11369,21,1415
5473,2108,5485,4397,43,449,5499,11425,20,1419
5499,1965,5515,4389,0,467,5529,11373,0,1409
5529,1981,5545,4393,7,472,5559,11432,0,1415
5559,1890,5575,4399,13,457,5589,11419,0,1419
5589,1905,5605,4386,10,451,5619,11411,0,1435
5619,1819,5631,4380,13,436,5644,11300,0,1449
5644,1813,5656,4393,12,436,5669,11263,1,1430
5669,1855,5681,4379,49,428,5694,11286,14,1444
5694,1886,5706,4377,26,463,5719,11296,28,1441
5719,1808,5731,4375,21,469,5744,11332,14,1435
5744,1734,5756,4391,0,465,5769,11391,9,1431
5769,1819,5781,4394,19,471,5795,11417,2,1413
5795,1734,5811,4399,8,451,5825,11386,11,1420
5825,2055,5837,4371,6,449,5850,11335,0,1410
5850,835,5862,4384,34,422,5875,11313,0,1428
5875,1703,5887,4390,63,439,5900,11309,0,1435
5900,1818,5912,4386,22,475,5925,11312,0,1452
5925,1889,5937,4381,3,469,5950,11259,0,1442
5950,2034,5962,4391,15,468,5975,11280,9,1435
5975,2000,5987,4382,16,461,6000,11276,32,1434
6000,1982,6012,4378,11,456,6025,11325,22,1433
6025,2096,6038,4381,0,448,6050,11329,0,1420
6050,2109,6063,4360,3,435,6076,11325,0,1426
6076,2017,6088,4377,62,437,6101,11320,6,1416
6101,1897,6113,4378,28,443,6126,11322,0,1423
6126,1931,6138,4383,11,467,6151,11319,0,1416
6151,1966,6163,4377,30,466,6176,11336,0,1438
6176,1904,6188,4381,16,474,6201,11293,0,1440
6201,1879,6213,4378,17,448,6226,11284,0,1449
6226,1951,6238,4373,0,446,6251,11263,9,1428
6251,1882,6264,4376,3,437,6276,11345,18,1440
6276,1782,6289,4369,0,439,6301,11335,16,1429
6301,1792,6314,4361,0,456,6326,11330,0,1421
6326,1814,6339,4379,0,460,6352,11310,11,1424
6352,1916,6364,4382,29,485,6377,11316,1,1414
6377,1817,6389,4395,12,463,6402,11339,0,1407
6402,1840,6414,4385,14,448,6427,11316,0,1420
6427,1915,6439,4383,0,451,6452,11312,0,1425
6452,1910,6465,4391,0,446,6477,11351,18,1440
6477,1851,6490,4373,0,443,6502,11339,23,1441
6502,1906,6515,4370,0,453,6527,11342,19,1439
6527,1935,6540,4375,0,458,6552,11324,18,1441
6552,1881,6565,4353,0,465,6577,11327,11,1435
6577,1827,6590,4354,4,460,6602,11346,10,1427
6602,2091,6615,4326,21,462,6627,11332,3,1427
6627,1136,6640,4331,17,459,6653,11313,18,1429
6653,1730,6666,4392,0,454,6678,11337,34,1406
6678,2117,6691,4372,8,440,6703,11340,54,1423
6703,2068,6716,4372,0,456,6728,11346,49,1426
6728,2135,6741,4375,0,464,6753,11343,21,1446
6753,2128,6766,4367,0,465,6778,11332,0,1440
6778,2159,6791,4368,7,473,6803,11334,31,1443
6803,2327,6816,4340,14,463,6828,11341,0,1447
6828,2283,6841,4296,19,458,6853,11336,19,1438
6853,2233,6866,4330,10,434,6878,11329,4,1435
6878,2063,6892,4366,12,443,6903,11345,0,1429
6903,2032,6917,4472,5,450,6929,11341,0,1405
6929,2047,6942,4362,2,452,6954,11347,19,1421
6954,2044,6967,4379,0,470,6979,11345,46,1413
6979,1975,6992,4356,3,483,7004,11346,52,1422
7004,2032,7017,4362,13,479,7029,11327,15,1414
7029,1984,7042,4281,24,480,7054,11335,23,1443
7054,1962,7067,4321,12,451,7079,11334,3,1436
7079,1936,7093,4366,12,441,7109,11346,0,1441
7109,2016,7123,4419,4,427,7139,11348,3,1430
7139,1968,7153,4423,0,447,7164,11331,0,1411
7164,2023,7178,4471,0,476,7189,11342,0,1428
7189,2118,7203,4416,0,485,7215,11344,0,1431
7215,2115,7228,4352,3,457,7240,11336,20,1418
7240,2115,7253,4299,36,452,7265,11336,58,1416
7265,2109,7278,4318,0,456,7290,11321,50,1419
7290,2057,7304,4360,14,439,7320,11332,8,1434
7320,1984,7334,4407,0,444,7350,11326,0,1438
7350,2325,7364,4419,0,455,7380,11345,17,1445
7380,1006,7394,4478,0,455,7410,11366,32,1430
7410,1942,7424,4474,4,459,7440,11340,32,1434
7440,1995,7454,4438,14,489,7465,11335,0,1435
7465,2086,7479,4394,13,452,7490,11347,0,1417
7490,2032,7505,4391,5,441,7521,11317,14,1419
7521,2027,7535,4395,2,438,7551,11332,0,1410
7551,2183,7565,4416,0,454,7581,11313,0,1419
7581,2187,7595,4464,0,443,7611,11323,0,1435
7611,2173,7625,4472,0,469,7641,11340,0,1439
7641,2038,7655,4438,4,462,7671,11351,2,1431
7671,2064,7685,4388,8,442,7701,11350,25,1431
7701,1977,7716,4395,10,423,7731,11344,9,1428
7731,2047,7746,4388,5,415,7761,11349,14,1412
7761,1920,7776,4352,0,416,7792,11321,10,1406
7792,1967,7806,4494,0,455,7822,11312,4,1402
7822,1872,7836,4465,0,458,7852,11308,0,1403
7852,1941,7866,4446,19,455,7882,11307,0,1414
7882,1793,7896,4379,7,449,7912,11313,16,1419
7912,1811,7927,4382,0,437,7942,11340,0,1438
7942,1741,7957,4372,0,437,7972,11334,21,1421
7972,1728,7987,4353,0,435,8002,11338,39,1421
8002,1682,8017,4370,0,463,8032,11337,14,1400
8032,1693,8047,4399,2,484,8062,11327,28,1385
8062,1680,8077,4411,0,470,8093,11321,2,1381
8093,1986,8107,4395,16,451,8123,11324,2,1375
8123,784,8138,4394,2,441,8153,11322,5,1385
8153,1610,8168,4399,1,416,8183,11327,0,1410
8183,1850,8198,4372,0,442,8213,11338,2,1414
8213,2000,8228,4389,0,445,8243,11346,2,1424
8243,2001,8258,4410,4,478,8273,11370,33,1426
8273,2064,8288,4421,19,470,8303,11362,33,1399
8303,2169,8318,4403,16,443,8333,11354,22,1400
8333,2277,8349,4400,8,450,8364,11339,0,1394
8364,2143,8379,4393,4,408,8394,11335,0,1406
8394,2230,8409,4376,0,417,8424,11320,1,1414
8424,2320,8439,4370,0,469,8454,11320,0,1412
8454,2365,8469,4392,0,451,8484,11335,0,1434
8484,2429,8499,4395,6,454,8514,11347,0,1435
8514,2513,8529,4413,14,435,8544,11339,3,1431
8544,2417,8560,4384,0,433,8574,11339,19,1447
8574,2432,8590,4368,5,408,8604,11340,11,1414
8604,2476,8620,4359,0,443,8635,11331,0,1418
8635,2443,8650,4370,0,451,8665,11335,0,1398
8665,2353,8680,4387,5,458,8695,11323,0,1403
8695,2391,8710,4390,12,452,8725,11317,0,1394
8725,2421,8740,4400,27,443,8755,11330,0,1431
8755,2403,8771,4388,6,450,8785,11368,0,1420
8785,2283,8801,4364,4,421,8815,11334,17,1417
8815,2189,8831,4360,0,458,8845,11331,22,1406
8845,2349,8861,4370,0,461,8875,11332,5,1394
8875,881,8891,4378,0,476,8905,11342,21,1385
8905,1973,8921,4404,20,455,8936,11322,0,1381
8936,1979,8951,4400,9,445,8966,11325,2,1380
8966,1989,8982,4389,16,443,8996,11417,0,1393
8996,1933,9012,4369,6,446,9026,11403,0,1398
9026,1943,9042,4362,0,433,9056,11385,0,1410
9056,1936,9072,4365,0,471,9086,11348,0,1422
9086,1927,9102,4394,9,491,9116,11338,3,1418
9116,1789,9132,4395,13,457,9146,11332,28,1395
9146,1699,9162,4396,27,454,9176,11331,16,1412
9176,1622,9193,4393,0,444,9207,11368,8,1394
9207,1578,9223,4374,5,433,9237,11380,0,1414
9237,1436,9253,4365,0,447,9267,11399,0,1419
9267,1475,9283,4376,3,462,9297,11404,0,1420
9297,1424,9313,4403,10,457,9327,11415,0,1447
9327,1411,9343,4416,15,459,9357,11382,0,1447
9357,1376,9373,4384,11,461,9387,11326,15,1442
9387,1446,9404,4378,0,441,9417,11272,23,1452
9417,1424,9429,4392,45,439,9442,11312,26,1423
9442,1482,9454,4388,60,441,9467,11369,7,1422
9467,1605,9479,4383,34,463,9493,11422,12,1421
9493,1664,9509,4385,0,480,9523,11384,9,1419
9523,1754,9539,4408,5,471,9553,11417,0,1421
9553,1744,9569,4411,18,460,9583,11407,0,1426
9583,1693,9599,4374,4,456,9613,11388,3,1434
9613,2080,9625,4398,25,440,9638,11260,0,1456
9638,609,9650,4394,37,442,9663,11247,10,1431
9663,1664,9675,4390,33,441,9688,11269,3,1433
9688,2001,9700,4380,8,460,9713,11296,40,1424
9713,2101,9725,4389,6,477,9738,11367,20,1424
9738,2097,9750,4391,22,478,9764,11405,18,1415
9764,2106,9780,4393,26,453,9794,11359,0,1418
9794,2135,9810,4387,11,441,9824,11404,0,1419
9824,2188,9836,4397,21,437,9849,11309,0,1405
9849,2234,9861,4384,45,444,9874,11308,0,1444
9874,2159,9886,4398,41,441,9899,11285,0,1435
9899,2063,9911,4390,32,469,9924,11254,0,1445
9924,2097,9936,4389,20,470,9949,11279,4,1439
9949,2239,9961,4379,18,465,9974,11279,19,1439
9974,2254,9986,4382,20,460,9999,11297,17,1420
9999,2187,10011,4390,13,447,10024,11350,22,1429
10024,2141,10037,4396,0,437,10050,11324,13,1419
10050,2102,10062,4395,44,428,10075,11303,8,1420
10075,2025,10087,4383,68,446,10100,11321,5,1403
10100,1939,10112,4385,26,464,10125,11310,2,1422
10125,1990,10137,4380,21,463,10150,11320,0,1419
10150,2023,10162,4373,32,454,10175,11293,0,1447
10175,2023,10187,4379,14,459,10200,11273,0,1438
10200,2047,10212,4400,11,439,10225,11255,3,1438
10225,2054,10238,4381,0,452,10250,11319,0,1446
10250,2123,10263,4384,0,425,10275,11326,10,1428
10275,2016,10288,4367,0,442,10300,11308,6,1420
10300,1943,10313,4370,8,438,10325,11337,2,1433
10325,1967,10338,4379,0,480,10351,11307,0,1400
10351,2209,10363,4382,24,472,10376,11314,5,1411
10376,1451,10388,4395,15,468,10401,11313,0,1430
10401,1637,10413,4393,26,468,10426,11306,0,1425
10426,2126,10438,4380,4,439,10451,11309,0,1434
10451,2144,10464,4378,0,436,10476,11336,16,1453
10476,2085,10489,4388,0,436,10501,11325,33,1449
10501,2091,10514,4380,0,450,10526,11322,14,1451
10526,2166,10539,4376,0,467,10551,11331,13,1444
10551,2176,10564,4382,0,469,10576,11326,3,1429
10576,2176,10589,4326,5,462,10601,11304,9,1436
10601,2096,10614,4310,17,441,10627,11318,11,1431
10627,2151,10639,4396,8,439,10652,11309,9,1411
10652,2092,10665,4374,0,430,10677,11328,42,1424
10677,2145,10690,4369,0,427,10702,11323,63,1424
10702,2176,10715,4365,0,453,10727,11328,26,1435
10727,2223,10740,4371,0,459,10752,11319,26,1445
10752,2241,10765,4385,0,480,10777,11350,18,1437
10777,2255,10790,4353,9,468,10802,11328,16,1441
10802,2243,10815,4304,15,466,10827,11333,25,1437
10827,2304,10840,4316,9,450,10852,11326,22,1419
10852,2276,10866,4334,20,450,10877,11324,0,1432
10877,2278,10891,4401,0,446,10903,11316,1,1411
10903,2199,10916,4387,0,458,10928,11333,25,1405
10928,2224,10941,4374,0,453,10953,11327,42,1415
10953,2162,10966,4379,0,467,10978,11322,43,1414
10978,2081,10991,4361,0,477,11003,11329,25,1422
11003,1894,11016,4363,9,474,11028,11321,0,1434
11028,1775,11041,4314,33,454,11053,11316,9,1442
11053,1696,11066,4316,18,442,11078,11332,7,1428
11078,1638,11092,4376,14,449,11108,11341,0,1448
11108,402,11122,4405,13,458,11138,11333,24,1429
11138,1111,11152,4447,0,440,11163,11327,0,1424
11163,1238,11177,4447,0,468,11189,11321,0,1410
11189,1225,11202,4360,4,485,11214,11327,24,1395
11214,1267,11227,4344,6,463,11239,11323,30,1413
11239,1245,11252,4323,31,448,11264,11324,89,1413
11264,1243,11277,4336,16,463,11289,11323,26,1427
11289,1321,11303,4371,0,446,11319,11316,0,1451
11319,1424,11333,4419,0,436,11349,11337,3,1444
11349,1472,11363,4453,0,451,11379,11339,18,1445
11379,1456,11393,4480,5,475,11409,11327,35,1436
11409,1583,11423,4465,7,467,11434,11331,0,1423
11434,1529,11448,4395,22,444,11459,11323,0,1416
11459,1567,11473,4391,29,458,11485,11334,20,1424
11485,1645,11498,4351,11,446,11510,11332,42,1407
11510,1744,11524,4413,0,439,11540,11318,0,1414
11540,1698,11554,4405,0,439,11570,11306,0,1420
11570,1728,11584,4443,0,453,11600,11321,0,1433
11600,1707,11614,4486,3,476,11630,11321,0,1445
11630,1787,11644,4453,28,459,11660,11346,12,1434
11660,1805,11674,4397,26,438,11690,11337,20,1433
11690,1782,11704,4395,14,446,11715,11331,0,1423
11715,1808,11730,4376,0,410,11745,11320,8,1419
11745,1787,11760,4367,2,413,11776,11332,0,1407
11776,1659,11790,4440,0,418,11806,11303,0,1418
11806,1713,11820,4479,0,463,11836,11298,0,1411
11836,1923,11850,4470,0,441,11866,11313,0,1433
11866,666,11880,4427,17,430,11896,11293,0,1430
11896,1682,11910,4378,23,440,11926,11321,1,1431
11926,1744,11941,4373,7,423,11956,11328,5,1424
11956,1711,11971,4393,0,437,11986,11324,18,1414
11986,1714,12001,4375,0,427,12016,11312,0,1411
12016,1725,12031,4387,0,470,12047,11315,7,1398
12047,1840,12061,4459,2,454,12077,11293,6,1392
12077,1769,12091,4402,16,470,12107,11310,0,1389
12107,1776,12121,4382,1,441,12137,11289,0,1389
12137,1677,12152,4376,0,430,12167,11305,0,1404
12167,1791,12182,4368,0,438,12197,11347,0,1417
12197,1744,12212,4370,0,457,12227,11353,26,1416
12227,1794,12242,4394,0,453,12257,11338,14,1413
12257,1822,12272,4397,21,480,12287,11346,13,1395
12287,1901,12302,4403,28,455,12317,11335,19,1396
12317,1855,12332,4408,24,447,12348,11337,1,1389
12348,1914,12363,4396,9,431,12378,11317,5,1386
12378,1909,12393,4394,0,434,12408,11311,0,1417
12408,1981,12423,4385,0,441,12438,11313,0,1414
12438,2012,12453,4401,1,468,12468,11334,0,1436
12468,2195,12483,4405,15,454,12498,11349,0,1444
12498,2199,12513,4397,26,447,12528,11351,12,1437
12528,2207,12543,4413,23,440,12558,11347,16,1424
12558,2192,12574,4383,5,433,12588,11318,9,1412
12588,2509,12604,4384,0,424,12619,11335,6,1409
12619,1110,12634,4388,0,440,12649,11332,19,1402
12649,2160,12664,4390,0,471,12679,11298,0,1401
12679,2343,12694,4404,16,457,12709,11318,0,1412
12709,2361,12724,4392,28,437,12739,11300,0,1419
12739,2332,12754,4382,9,438,12769,11333,0,1439
12769,2442,12785,4373,6,427,12799,11325,6,1415
12799,2413,12815,4373,0,434,12829,11324,19,1421
12829,2495,12845,4386,0,449,12859,11328,16,1402
12859,2372,12875,4396,0,457,12889,11318,13,1406
12889,2365,12905,4392,0,462,12920,11331,0,1381
12920,2304,12935,4388,37,469,12950,11320,7,1376
12950,2355,12965,4415,10,432,12980,11292,0,1372
12980,2231,12996,4384,3,439,13010,11387,0,1395
13010,2339,13026,4383,0,447,13040,11351,0,1408
13040,2259,13056,4390,0,438,13070,11331,0,1393
13070,2358,13086,4389,0,461,13100,11330,16,1417
13100,2319,13116,4408,12,467,13130,11313,10,1399
13130,2334,13146,4415,25,481,13160,11321,10,1389
13160,2297,13176,4405,14,441,13191,11324,0,1384
13191,2244,13207,4402,3,439,13221,11379,0,1388
13221,2247,13237,4393,0,466,13251,11409,0,1408
13251,2343,13267,4382,0,451,13281,11395,0,1412
13281,2337,13297,4400,0,474,13311,11377,0,1420
13311,2352,13327,4405,24,467,13341,11341,0,1434
13341,2222,13357,4411,34,475,13371,11319,8,1444
13371,2611,13387,4412,8,465,13401,11316,14,1438
13401,1303,13413,4393,18,429,13426,11318,13,1426
13426,2118,13438,4419,47,445,13451,11362,20,1423
13451,2288,13463,4404,81,438,13477,11405,14,1419
13477,2213,13493,4383,0,475,13507,11366,0,1416
13507,2336,13523,4405,0,457,13537,11402,4,1419
13537,2361,13553,4407,6,479,13567,11386,0,1427
13567,2368,13583,4418,19,459,13597,11372,0,1436
13597,2332,13614,4388,0,425,13627,11238,2,1449
13627,2203,13639,4405,5,449,13652,11253,9,1432
13652,2083,13664,4385,51,447,13677,11258,12,1442
13677,1988,13689,4391,25,465,13702,11293,21,1429
13702,1938,13714,4392,17,474,13727,11360,6,1409
13727,1997,13739,4402,15,457,13753,11387,9,1414
13753,2066,13769,4421,0,461,13783,11358,0,1404
13783,2015,13799,4410,3,460,13813,11384,0,1418
13813,2069,13830,4406,5,447,13843,11292,0,1419
13843,1983,13855,4400,18,428,13868,11299,0,1432
13868,2073,13880,4404,30,441,13893,11282,5,1437
13893,2013,13905,4399,32,440,13918,11241,1,1435
13918,2032,13930,4407,9,474,13943,11245,9,1439
13943,2043,13955,4403,22,477,13968,11269,8,1444
13968,2117,13980,4404,8,464,13993,11306,17,1431
13993,2186,14005,4389,5,451,14018,11361,0,1433
14018,2202,14030,4390,12,457,14044,11406,9,1417
14044,2042,14056,4412,22,446,14069,11298,0,1410
14069,2069,14081,4373,46,451,14094,11295,0,1412
14094,2141,14106,4383,42,445,14119,11306,0,1426
14119,2321,14131,4377,19,470,14144,11303,0,1428
14144,1280,14156,4404,23,477,14169,11280,0,1440
14169,1935,14181,4389,1,455,14194,11235,0,1443
14194,2074,14206,4398,12,461,14219,11240,19,1424
14219,1938,14231,4397,0,452,14244,11257,6,1439
14244,1825,14257,4384,0,454,14269,11313,20,1439
14269,1832,14282,4401,0,436,14294,11306,2,1430
14294,1790,14307,4376,5,442,14320,11303,13,1419
14320,1745,14332,4398,29,459,14345,11293,0,1404
14345,1738,14357,4391,0,473,14370,11302,1,1395
14370,1723,14382,4396,33,453,14395,11317,0,1415
14395,1668,14407,4389,19,463,14420,11290,0,1431
14420,1579,14432,4391,0,450,14445,11283,5,1443
14445,1535,14458,4389,0,437,14470,11327,5,1449
14470,1575,14483,4387,0,433,14495,11298,15,1441
14495,1545,14508,4375,3,439,14520,11325,12,1443
14520,1587,14533,4367,0,452,14545,11314,24,1421
14545,1591,14558,4400,0,473,14570,11298,0,1426
14570,1617,14583,4359,5,466,14595,11303,1,1433
14595,1683,14608,4348,19,476,14621,11311,0,1406
14621,1715,14633,4399,20,434,14646,11283,0,1414
14646,1735,14658,4393,2,460,14671,11310,5,1419
14671,1711,14684,4402,5,441,14696,11318,45,1425
14696,1686,14709,4379,0,452,14721,11315,28,1425
14721,1600,14734,4373,0,436,14746,11311,23,1456
14746,1487,14759,4396,0,466,14771,11325,25,1447
14771,1509,14784,4372,0,472,14796,11312,17,1440
14796,1389,14809,4359,18,471,14821,11311,25,1429
14821,1638,14834,4312,28,453,14846,11309,9,1439
14846,560,14859,4322,15,458,14871,11312,5,1410
14871,1267,14885,4337,19,438,14897,11319,20,1423
14897,1600,14910,4401,1,444,14922,11310,23,1412
14922,1624,14935,4379,0,436,14947,11314,50,1399
14947,1713,14960,4388,0,447,14972,11304,62,1427
14972,1758,14985,4381,0,466,14997,11312,21,1423
14997,1823,15010,4356,0,480,15022,11328,6,1434
15022,1843,15035,4340,29,465,15047,11319,15,1451
15047,1875,15060,4315,18,446,15072,11316,24,1434
15072,1837,15085,4346,21,458,15097,11308,8,1450
15097,1791,15111,4400,6,433,15127,11321,0,1433
15127,1747,15141,4404,0,436,15152,11306,0,1409
15152,1835,15166,4489,0,455,15178,11316,0,1429
15178,1744,15191,4400,0,472,15203,11313,12,1415
15203,1822,15216,4377,0,460,15228,11317,39,1417
15228,1819,15241,4340,8,482,15253,11323,57,1424
15253,1757,15266,4300,34,460,15278,11314,22,1425
15278,1632,15291,4346,1,446,15303,11301,9,1445
15303,1551,15317,4381,0,468,15333,11319,0,1434
15333,1600,15347,4410,1,440,15363,11335,26,1438
15363,1506,15377,4456,0,470,15393,11328,21,1435
15393,1581,15407,4498,0,477,15418,11326,0,1428
15418,1607,15432,4417,0,477,15443,11319,0,1418
15443,1662,15457,4384,8,460,15469,11320,15,1407
15469,1644,15482,4310,2,456,15494,11320,61,1396
15494,1669,15507,4340,8,471,15519,11293,50,1418
15519,1698,15533,4393,0,441,15549,11299,0,1418
15549,2177,15563,4411,0,436,15579,11296,0,1429
15579,1184,15593,4440,0,446,15609,11322,15,1445
15609,2080,15623,4470,0,468,15639,11336,15,1438
15639,2146,15653,4475,0,464,15669,11331,18,1437
15669,2230,15683,4435,35,444,15699,11331,13,1434
15699,2256,15713,4393,15,443,15724,11316,0,1408
15724,2331,15739,4397,16,422,15755,11327,12,1402
15755,2433,15769,4399,0,423,15785,11309,2,1416
15785,2323,15799,4412,0,445,15815,11304,0,1413
15815,2311,15829,4512,0,459,15845,11308,0,1420
15845,2201,15859,4490,0,451,15875,11300,0,1433
15875,2275,15889,4439,20,444,15905,11319,3,1432
15905,2099,15919,4393,2,427,15935,11315,19,1430
15935,2191,15950,4389,8,439,15965,11317,27,1431
15965,2169,15980,4375,0,412,15995,11300,21,1413
15995,2176,16010,4374,0,430,16026,11309,18,1406
16026,2149,16040,4496,0,444,16056,11306,5,1397
16056,2192,16070,4472,8,461,16086,11282,0,1415
16086,2163,16100,4440,14,423,16116,11286,0,1391
16116,2226,16130,4388,18,452,16146,11293,0,1414
16146,2160,16161,4396,11,437,16176,11305,1,1431
16176,2207,16191,4378,0,424,16206,11324,14,1403
16206,2065,16221,4373,0,433,16236,11309,21,1403
16236,2146,16251,4401,0,454,16266,11316,26,1410
16266,2341,16281,4397,0,470,16296,11315,34,1390
16296,997,16311,4415,24,472,16327,11304,10,1384
16327,2140,16341,4406,19,448,16357,11301,0,1383
16357,2224,16372,4413,7,437,16387,11306,0,1399
16387,2185,16402,4390,0,446,16417,11315,0,1408
16417,2212,16432,4389,0,456,16447,11306,0,1417
16447,2078,16462,4383,0,476,16477,11341,0,1427
16477,1977,16492,4413,6,468,16507,11341,16,1432
16507,1857,16522,4434,7,462,16537,11338,16,1408
16537,1727,16552,4409,4,444,16567,11335,21,1411
16567,1585,16583,4398,30,436,16598,11309,27,1410
16598,1595,16613,4401,1,422,16628,11311,6,1411
16628,1634,16643,4380,0,442,16658,11300,4,1419
16658,1711,16673,4389,0,463,16688,11295,0,1407
16688,1798,16703,4412,0,471,16718,11319,0,1438
16718,1899,16733,4404,12,450,16748,11331,1,1442
16748,1937,16763,4411,17,429,16778,11339,13,1437
16778,1947,16794,4408,9,411,16808,11314,26,1440
16808,2016,16824,4380,5,437,16838,11311,26,1415
16838,2059,16854,4376,1,434,16868,11305,13,1415
16868,2137,16884,4374,0,459,16899,11289,7,1413
16899,2166,16914,4411,1,481,16929,11288,0,1405
16929,2089,16944,4410,18,468,16959,11287,0,1401
16959,1983,16974,4405,9,437,16989,11303,0,1411
16989,2058,17005,4408,5,442,17019,11372,0,1413
17019,2227,17035,4378,0,428,17049,11337,6,1419
17049,1596,17065,4373,0,435,17079,11309,21,1402
17079,2099,17095,4382,1,464,17109,11304,27,1400
17109,2208,17125,4403,13,471,17139,11318,3,1394
17139,2255,17155,4419,4,459,17170,11313,0,1382
17170,2256,17185,4404,20,462,17200,11304,0,1384
17200,2145,17216,4401,0,443,17230,11408,0,1367
17230,2259,17246,4385,0,423,17260,11389,0,1397
17260,2132,17276,4368,0,458,17290,11386,0,1416
17290,2097,17306,4389,0,467,17320,11351,3,1433
17320,2082,17336,4403,3,463,17350,11303,12,1435
17350,2058,17366,4410,33,469,17380,11306,16,1430
17380,1981,17396,4411,18,455,17410,11312,35,1423
17410,2035,17427,4396,0,451,17440,11309,3,1423
17440,1945,17452,4408,31,444,17466,11402,12,1413
17466,1935,17482,4377,2,449,17496,11357,9,1387
17496,1970,17512,4383,0,456,17526,11401,3,1417
17526,1890,17542,4404,2,486,17556,11389,0,1406
17556,2010,17572,4409,18,467,17586,11369,0,1440
17586,1937,17602,4409,1,452,17616,11338,0,1444
17616,2038,17633,4387,7,448,17646,11238,19,1441
17646,1895,17658,4410,17,433,17671,11248,15,1433
17671,1936,17683,4396,60,460,17696,11287,0,1428
17696,1985,17708,4400,25,460,17721,11359,6,1423
17721,2225,17733,4402,0,483,17747,11391,7,1406
17747,997,17763,4421,2,470,17777,11355,0,1406
17777,1966,17793,4411,10,478,17807,11395,0,1420
17807,2082,17823,4392,2,451,17837,11388,0,1416
17837,2096,17849,4404,0,442,17862,11259,0,1425
17862,1997,17874,4389,40,454,17887,11254,5,1446
17887,2061,17899,4391,64,448,17912,11239,8,1427
17912,2150,17924,4409,33,463,17937,11243,26,1452
17937,2192,17949,4388,14,471,17962,11266,35,1429
17962,2176,17974,4391,16,456,17987,11307,16,1426
17987,2134,17999,4397,16,473,18012,11365,17,1418
18012,2060,18024,4395,0,447,18038,11378,0,1408
18038,1940,18055,4394,8,438,18068,11283,0,1400
18068,1904,18080,4402,25,442,18093,11292,0,1406
18093,1877,18105,4395,84,444,18118,11277,0,1413
18118,1900,18130,4391,32,453,18143,11286,0,1438
18143,1879,18155,4386,19,464,18168,11245,0,1445
18168,1854,18180,4416,20,454,18193,11221,3,1420
18193,1912,18205,4409,14,466,18218,11257,20,1441
18218,1938,18230,4391,14,461,18243,11248,18,1432
18243,1867,18255,4396,5,451,18268,11293,20,1434
18268,1872,18281,4395,2,448,18293,11301,0,1430
18293,1931,18306,4392,0,449,18319,11282,4,1411
18319,1941,18331,4394,53,444,18344,11277,12,1424
18344,1940,18356,4400,22,462,18369,11294,0,1413
18369,1965,18381,4407,26,467,18394,11289,0,1414
18394,1932,18406,4400,21,478,18419,11290,0,1431
18419,1941,18431,4392,13,459,18444,11258,0,1435
18444,2080,18456,4395,0,453,18469,11236,0,1438
18469,1903,18482,4407,9,429,18494,11310,20,1435
18494,1506,18507,4395,0,431,18519,11306,10,1431
18519,2081,18532,4394,0,435,18544,11303,25,1425
18544,2062,18557,4378,0,453,18569,11301,2,1416
18569,2131,18582,4392,0,464,18595,11283,11,1417
18595,2167,18607,4399,16,453,18620,11283,0,1420
18620,2215,18632,4403,18,470,18645,11300,0,1420
18645,2217,18657,4419,0,440,18670,11291,0,1429
18670,2279,18683,4402,12,431,18695,11297,20,1419
18695,2227,18708,4388,5,435,18720,11314,20,1452
18720,2112,18733,4387,0,446,18745,11304,22,1439
18745,1994,18758,4371,0,456,18770,11309,28,1445
18770,2045,18783,4380,0,471,18795,11303,24,1443
18795,2007,18808,4397,0,473,18820,11314,6,1427
18820,1945,18833,4349,17,448,18845,11285,5,1417
18845,1910,18858,4328,25,452,18871,11306,0,1414
18871,2031,18883,4398,3,456,18896,11310,3,1417
18896,2053,18909,4405,10,443,18921,11308,31,1406
18921,1875,18934,4390,8,440,18946,11308,74,1414
18946,1833,18959,4380,0,455,18971,11318,39,1440
18971,1887,18984,4381,0,462,18996,11299,24,1429
18996,1835,19009,4368,0,470,19021,11321,22,1444
19021,1738,19034,4351,6,469,19046,11291,23,1439
19046,1714,19059,4328,17,476,19071,11308,10,1436
19071,1838,19084,4349,22,440,19096,11296,15,1434
19096,1821,19110,4358,13,461,19121,11305,0,1437
19121,1855,19135,4432,2,443,19146,11285,0,1419
19146,1865,19160,4481,0,451,19172,11297,0,1420
19172,1916,19185,4399,0,454,19197,11294,34,1413
19197,2127,19210,4386,0,482,19222,11311,36,1419
19222,2153,19235,4373,4,479,19247,11301,50,1424
19247,1285,19260,4354,19,467,19272,11322,10,1433
19272,2103,19285,4314,23,447,19297,11293,4,1433
19297,2114,19310,4353,23,458,19322,11294,14,1453
19322,2083,19336,4400,10,441,19352,11331,15,1434
19352,2107,19366,4409,2,439,19382,11304,11,1426
19382,2067,19396,4434,0,450,19407,11303,0,1415
19407,2101,19421,4454,0,493,19432,11305,0,1413
19432,2127,19446,4408,12,470,19458,11302,23,1410
19458,2128,19471,4341,15,471,19483,11317,35,1395
19483,1981,19496,4321,15,453,19508,11273,65,1415
19508,1990,19521,4346,16,456,19533,11303,53,1416
19533,2099,19547,4414,0,456,19563,11296,0,1431
19563,2079,19577,4411,0,446,19593,11321,0,1445
19593,2147,19607,4468,0,455,19623,11314,15,1428
19623,2126,19637,4494,0,471,19653,11321,37,1440
19653,2192,19667,4466,3,471,19678,11310,0,1433
19678,2227,19692,4413,15,462,19703,11308,0,1418
19703,2188,19717,4408,28,456,19729,11302,37,1417
19729,2170,19743,4377,29,428,19759,11287,5,1401
19759,2192,19773,4396,0,431,19789,11289,0,1428
19789,2144,19803,4443,0,438,19819,11273,0,1409
19819,2172,19833,4503,0,469,19849,11290,0,1434
19849,2187,19863,4480,0,465,19879,11306,1,1441
19879,2201,19893,4433,16,450,19909,11328,28,1440
19909,2115,19923,4402,13,432,19939,11312,10,1431
19939,2141,19954,4404,7,434,19969,11307,9,1423
19969,2337,19984,4403,4,416,19999,11292,27,1419
19999,1136,20014,4369,0,437,20030,11292,7,1396
20030,2022,20044,4506,0,440,20060,11284,12,1398
20060,2187,20074,4480,6,461,20090,11276,0,1404
20090,2253,20104,4438,13,439,20120,11295,0,1430
20120,2203,20134,4399,0,453,20150,11296,0,1421
20150,2256,20165,4399,0,437,20180,11313,0,1416
20180,2274,20195,4405,0,434,20210,11296,28,1417
20210,2193,20225,4389,0,456,20240,11304,20,1406
20240,2112,20255,4395,0,465,20270,11293,25,1385
20270,2064,20285,4404,0,447,20301,11279,4,1391
20301,1931,20315,4425,28,431,20331,11294,11,1371
20331,1936,20345,4391,15,446,20361,11276,0,1398
20361,1995,20376,4400,9,431,20391,11296,0,1408
20391,2046,20406,4392,0,444,20421,11296,0,1398
20421,1872,20436,4383,0,439,20451,11321,1,1431
20451,1912,20466,4387,0,456,20481,11329,13,1408
20481,1840,20496,4408,9,456,20511,11313,26,1415
20511,1830,20526,4409,14,461,20541,11314,14,1391
20541,1813,20556,4417,8,436,20572,11310,7,1411
20572,1859,20587,4406,0,431,20602,11312,13,1426
20602,1829,20617,4402,3,426,20632,11307,0,1384
20632,1898,20647,4379,9,446,20662,11295,0,1403
20662,1824,20677,4399,1,467,20692,11304,0,1428
20692,1890,20707,4416,4,463,20722,11308,0,1437
20722,2170,20737,4413,19,464,20752,11319,0,1430
20752,993,20767,4411,27,429,20782,11332,11,1436
20782,1883,20798,4391,9,434,20812,11305,27,1425
20812,2047,20828,4399,0,418,20842,11291,18,1417
20842,2023,20858,4379,7,452,20873,11301,1,1407
20873,2070,20888,4386,0,472,20903,11275,0,1417
20903,2001,20918,4410,3,466,20933,11288,0,1398
20933,2096,20948,4408,19,455,20963,11293,0,1421
20963,2055,20978,4396,27,448,20993,11287,0,1421
20993,1947,21009,4373,4,419,21023,11315,7,1421
21023,1874,21039,4375,3,416,21053,11298,14,1413
21053,1957,21069,4374,0,453,21083,11308,31,1400
21083,1904,21099,4388,0,465,21113,11297,16,1401
21113,1991,21129,4418,14,462,21144,11295,21,1384
21144,1918,21159,4423,27,453,21174,11299,0,1362
21174,2047,21189,4413,7,447,21204,11284,0,1394
21204,2031,21220,4401,0,439,21234,11385,0,1386
21234,2081,21250,4384,13,448,21264,11369,0,1398
21264,2047,21280,4382,0,457,21294,11341,0,1405
21294,2045,21310,4403,0,475,21324,11292,7,1410
21324,2096,21340,4422,13,460,21354,11284,31,1401
21354,2158,21370,4393,39,468,21384,11302,4,1399
21384,2093,21400,4399,16,447,21414,11289,24,1394
21414,2070,21426,4404,1,439,21440,11385,7,1408
21440,2066,21456,4391,7,438,21470,11358,4,1392
21470,2271,21486,4374,0,440,21500,11384,0,1414
21500,823,21516,4395,3,471,21530,11383,0,1433
21530,1945,21546,4404,3,446,21560,11339,0,1436
21560,2135,21576,4391,23,460,21590,11323,0,1447
21590,2093,21606,4402,20,452,21620,11304,18,1443
21620,2139,21632,4407,0,437,21645,11232,17,1431
21645,2076,21657,4381,27,441,21670,11285,14,1416
21670,2131,21682,4402,66,451,21695,11350,20,1420
21695,2163,21707,4395,18,455,21721,11396,10,1419
21721,2064,21737,4393,0,471,21751,11360,3,1415
21751,1972,21767,4422,12,484,21781,11379,0,1423
21781,1893,21797,4397,4,458,21811,11372,0,1445
21811,1904,21827,4393,0,452,21841,11372,0,1429
21841,1881,21853,4398,16,444,21866,11212,0,1431
21866,1871,21878,4397,57,455,21891,11237,14,1436
21891,1958,21903,4389,44,460,21916,11261,20,1413
21916,2000,21928,4407,1,464,21941,11281,23,1433
21941,1967,21953,4418,1,476,21966,11318,20,1424
21966,1941,21978,4407,7,473,21992,11386,5,1417
21992,2017,22008,4422,40,452,22022,11344,0,1412
22022,2025,22038,4390,3,451,22052,11374,0,1403
22052,1999,22064,4410,11,441,22077,11262,0,1413
22077,2083,22089,4398,38,439,22102,11268,0,1440
22102,1943,22114,4401,36,444,22127,11233,0,1430
22127,1997,22139,4382,31,484,22152,11224,0,1448
22152,2011,22164,4388,29,465,22177,11227,20,1431
22177,2020,22189,4406,14,460,22202,11238,19,1433
22202,1989,22214,4399,20,449,22227,11286,11,1421
22227,2189,22239,4395,6,453,22252,11350,11,1410
22252,1076,22265,4404,0,445,22278,11279,11,1408
22278,1823,22290,4390,48,426,22303,11281,0,1408
22303,1866,22315,4404,59,434,22328,11277,15,1414
22328,1907,22340,4384,27,466,22353,11287,0,1419
22353,2003,22365,4408,16,463,22378,11285,0,1431
22378,2061,22390,4404,20,467,22403,11268,0,1428
22403,2019,22415,4421,21,451,22428,11211,7,1435
22428,2000,22440,4409,0,458,22453,11230,8,1461
22453,2070,22466,4411,5,435,22478,11290,23,1426
22478,1977,22491,4399,0,431,22503,11298,3,1411
22503,1746,22516,4371,0,450,22528,11286,18,1427
22528,1739,22541,4397,0,457,22554,11283,4,1414
22554,1813,22566,4405,9,473,22579,11265,15,1407
22579,1911,22591,4417,20,476,22604,11294,3,1410
22604,1873,22616,4389,7,460,22629,11279,0,1420
22629,1862,22641,4392,9,440,22654,11288,0,1426
22654,1916,22667,4392,17,460,22679,11291,28,1431
22679,1931,22692,4403,0,449,22704,11292,29,1432
22704,1858,22717,4385,0,448,22729,11300,22,1430
22729,1857,22742,4375,0,452,22754,11292,11,1440
22754,1999,22767,4394,0,467,22779,11297,22,1435
22779,2080,22792,4383,0,474,22804,11299,3,1419
22804,2023,22817,4372,25,465,22829,11282,0,1420
22829,2044,22842,4318,32,461,22855,11277,4,1396
22855,2009,22867,4382,8,447,22880,11272,0,1394
22880,1936,22893,4390,0,440,22905,11296,58,1413
22905,1921,22918,4379,7,431,22930,11294,49,1423
22930,2060,22943,4375,0,446,22955,11298,30,1431
22955,811,22968,4392,0,454,22980,11291,28,1453
22980,1600,22993,4384,0,464,23005,11291,17,1447
23005,1931,23018,4357,13,488,23030,11288,33,1438
23030,1920,23043,4324,20,458,23055,11287,21,1438
23055,1904,23068,4324,24,449,23080,11302,5,1437
23080,1968,23094,4361,3,443,23105,11296,0,1394
23105,1899,23119,4441,0,427,23131,11296,22,1417
23131,2007,23144,4387,0,441,23156,11300,26,1410
23156,2086,23169,4393,0,456,23181,11287,46,1424
23181,1983,23194,4394,0,467,23206,11292,37,1415
23206,1895,23219,4369,0,482,23231,11290,15,1432
23231,1915,23244,4353,17,480,23256,11280,1,1440
23256,1868,23269,4330,28,462,23281,11287,14,1440
23281,1889,23294,4351,25,451,23306,11284,9,1441
23306,1827,23320,4414,7,438,23336,11297,5,1421
23336,1877,23350,4408,2,440,23361,11293,0,1427
23361,1841,23375,4496,0,449,23386,11287,0,1405
23386,1893,23400,4459,4,463,23412,11298,0,1417
23412,1945,23425,4380,0,478,23437,11297,26,1405
23437,1936,23450,4363,12,470,23462,11279,44,1422
23462,1836,23475,4313,8,451,23487,11290,44,1412
23487,1778,23500,4354,3,463,23512,11296,36,1427
23512,1754,23526,4392,2,441,23542,11291,0,1433
23542,1796,23556,4417,0,453,23572,11306,3,1434
23572,1849,23586,4445,0,447,23602,11312,31,1443
23602,1779,23616,4488,0,481,23632,11304,42,1432
23632,1850,23646,4478,18,468,23657,11279,0,1417
23657,2126,23671,4413,15,457,23683,11290,0,1403
23683,639,23696,4325,22,448,23708,11301,26,1409
23708,1669,23722,4352,9,438,23738,11285,13,1405
23738,1972,23752,4392,0,438,23768,11277,5,1416
23768,1991,23782,4431,0,455,23798,11269,0,1428
23798,2078,23812,4484,0,466,23828,11289,2,1437
23828,1990,23842,4490,0,459,23858,11295,6,1442
23858,2151,23872,4450,7,464,23888,11289,36,1417
23888,2032,23902,4392,2,450,23918,11303,22,1426
23918,2052,23933,4402,0,429,23948,11280,12,1411
23948,1872,23963,4403,5,432,23979,11274,16,1399
23979,2030,23993,4432,0,428,24009,11281,6,1396
24009,1872,24023,4488,0,451,24039,11262,0,1408
24039,1973,24053,4504,0,455,24069,11282,4,1411
24069,1904,24083,4464,5,458,24099,11265,0,1427
24099,1936,24113,4397,20,446,24129,11313,0,1430
24129,1855,24144,4409,21,431,24159,11303,8,1411
24159,1970,24174,4410,0,419,24189,11281,20,1424
24189,1929,24204,4380,0,438,24219,11289,7,1409
24219,1904,24234,4403,0,451,24250,11257,19,1386
24250,1845,24264,4498,0,466,24280,11262,6,1387
24280,1970,24294,4468,24,450,24310,11254,0,1389
24310,1821,24324,4406,4,429,24340,11247,0,1398
24340,1811,24355,4415,3,433,24370,11282,0,1408
24370,2067,24385,4409,4,429,24400,11287,0,1422
24400,765,24415,4377,0,457,24430,11286,10,1412
24430,1824,24445,4399,0,458,24460,11316,20,1416
24460,1968,24475,4409,0,465,24490,11294,13,1389
24490,1991,24505,4427,7,460,24520,11304,13,1380
24520,2130,24535,4417,7,459,24551,11294,0,1398
24551,2117,24566,4400,9,431,24581,11283,0,1377
24581,2169,24596,4400,0,436,24611,11275,0,1395
24611,2184,24626,4381,0,440,24641,11277,0,1411
24641,2057,24656,4407,0,453,24671,11282,0,1418
24671,2000,24686,4410,0,477,24701,11306,0,1434
24701,2081,24716,4440,20,469,24731,11323,23,1432
24731,2015,24746,4429,16,444,24761,11318,15,1425
24761,2035,24777,4405,17,443,24791,11300,13,1422
24791,2023,24807,4408,5,424,24822,11307,0,1411
24822,2043,24837,4371,2,434,24852,11275,0,1406
24852,2090,24867,4392,0,444,24882,11275,0,1414
24882,2059,24897,4428,0,460,24912,11273,0,1417
24912,2045,24927,4433,0,456,24942,11274,0,1455
24942,2021,24957,4406,15,441,24972,11308,0,1437
24972,1991,24988,4389,21,435,25002,11275,17,1426
25002,1983,25018,4391,0,439,25032,11286,23,1427
25032,1888,25048,4363,0,436,25062,11289,6,1402
25062,1886,25078,4391,0,459,25093,11301,12,1403
25093,2202,25108,4419,0,470,25123,11281,0,1393
25123,783,25138,4410,28,458,25153,11277,0,1404
25153,1931,25168,4416,7,456,25183,11280,0,1395
25183,1933,25199,4401,12,444,25213,11357,0,1404
25213,2041,25229,4398,0,432,25243,11316,0,1420
25243,2017,25259,4384,2,457,25273,11300,8,1391
25273,2151,25289,4401,0,464,25303,11284,10,1418
25303,2159,25319,4422,0,486,25333,11295,18,1398
25333,2202,25349,4410,16,449,25363,11282,19,1397
25363,2046,25379,4427,22,439,25394,11286,0,1389
25394,1937,25410,4393,28,438,25424,11343,0,1363
25424,1921,25440,4399,8,446,25454,11379,0,1394
25454,1941,25470,4376,0,447,25484,11353,0,1405
25484,1934,25500,4400,0,477,25514,11347,0,1426
25514,2011,25530,4418,0,484,25544,11317,0,1425
25544,2027,25560,4435,22,459,25574,11302,2,1429
25574,2181,25590,4425,35,454,25604,11291,14,1424
25604,2089,25621,4400,10,437,25634,11256,3,1412
25634,2109,25646,4404,38,426,25660,11380,3,1394
25660,2258,25676,4395,0,442,25690,11336,2,1407
25690,2215,25706,4385,0,466,25720,11370,0,1421
25720,2279,25736,4409,0,466,25750,11370,0,1432
25750,2097,25766,4425,15,469,25780,11341,0,1429
25780,2135,25796,4416,25,471,25810,11322,0,1446
25810,2310,25826,4410,21,434,25840,11294,14,1434
25840,1222,25852,4404,19,437,25865,11245,3,1426
25865,1861,25877,4409,45,440,25890,11259,23,1423
25890,2055,25902,4423,39,447,25915,11325,18,1418
25915,2133,25927,4408,5,468,25941,11369,7,1422
25941,2106,25957,4417,0,477,25971,11317,9,1413
25971,2098,25987,4425,19,466,26001,11362,3,1419
26001,2158,26017,4427,10,449,26031,11363,0,1428
26031,2063,26048,4401,0,437,26061,11256,0,1431
26061,2034,26073,4406,35,436,26086,11234,0,1442
26086,1936,26098,4411,57,439,26111,11204,0,1421
26111,1931,26123,4406,24,452,26136,11227,9,1433
26136,1885,26148,4402,26,469,26161,11246,29,1421
26161,2010,26173,4403,31,465,26186,11281,4,1419
26186,1947,26198,4411,8,451,26211,11349,12,1424
26211,1919,26223,4417,15,454,26237,11364,0,1405
26237,1923,26254,4406,0,439,26267,11271,6,1388
26267,1802,26279,4416,15,432,26292,11276,0,1411
26292,1841,26304,4409,49,444,26317,11252,0,1422
26317,1861,26329,4409,51,466,26342,11250,0,1437
26342,1775,26354,4427,23,469,26367,11229,1,1433
26367,1716,26379,4410,23,477,26392,11216,0,1442
26392,1838,26404,4407,2,467,26417,11219,22,1442
26417,1936,26429,4406,9,455,26442,11221,21,1441
26442,1906,26454,4418,7,452,26467,11278,7,1417
26467,1850,26480,4405,2,442,26492,11282,8,1399
26492,1886,26505,4394,0,427,26518,11258,16,1400
26518,2069,26530,4419,66,440,26543,11267,16,1413
26543,1527,26555,4417,44,475,26568,11260,0,1405
26568,1498,26580,4414,23,470,26593,11272,0,1405
26593,2059,26605,4405,20,465,26618,11262,0,1419
26618,2224,26630,4395,28,453,26643,11240,0,1449
26643,2093,26655,4424,3,454,26668,11205,3,1432
26668,2113,26681,4415,7,446,26693,11280,5,1439
26693,2192,26706,4399,0,439,26718,11275,19,1431
26718,2214,26731,4392,0,462,26743,11286,2,1432
26743,2154,26756,4376,0,449,26768,11271,2,1400
26768,2096,26781,4390,0,471,26794,11258,1,1427
26794,2105,26806,4404,25,461,26819,11264,5,1399
26819,2119,26831,4410,16,475,26844,11278,0,1416
26844,2033,26856,4407,18,459,26869,11252,4,1405
26869,2029,26881,4400,0,450,26894,11291,0,1440
26894,2091,26907,4393,0,426,26919,11276,25,1436
26919,2138,26932,4394,0,456,26944,11281,18,1445
26944,2030,26957,4382,0,443,26969,11284,29,1427
26969,2025,26982,4418,0,465,26994,11286,6,1433
26994,2128,27007,4401,1,466,27019,11273,29,1423
27019,2261,27032,4360,11,480,27044,11276,0,1408
27044,2391,27057,4307,10,477,27070,11257,3,1419
27070,2546,27082,4413,1,447,27095,11269,19,1403
27095,2640,27108,4405,16,450,27120,11268,42,1398
27120,2738,27133,4392,0,433,27145,11278,47,1414
27145,2624,27158,4377,0,443,27170,11287,40,1407
27170,2749,27183,4399,0,463,27195,11277,23,1440
27195,2672,27208,4372,0,457,27220,11280,19,1443
27220,2661,27233,4367,0,470,27245,11281,16,1431
27245,2559,27258,4347,22,474,27270,11268,5,1432
27270,2832,27283,4330,22,440,27295,11277,11,1413
27295,1574,27309,4362,24,453,27320,11275,0,1425
27320,2430,27334,4424,4,445,27346,11289,0,1424
27346,2524,27359,4375,12,439,27371,11274,16,1402
27371,2569,27384,4394,0,438,27396,11285,29,1395
27396,2557,27409,4386,11,476,27421,11280,57,1419
27421,2485,27434,4379,0,465,27446,11281,31,1411
27446,2449,27459,4382,25,470,27471,11285,29,1434
27471,2437,27484,4328,7,457,27496,11285,12,1433
27496,2418,27509,4343,3,445,27521,11270,32,1431
27521,2226,27535,4391,3,443,27551,11295,7,1445
27551,2097,27565,4425,0,440,27581,11294,8,1432
27581,2014,27595,4460,0,456,27606,11276,0,1422
27606,1859,27620,4464,0,447,27632,11274,1,1418
27632,1849,27645,4387,0,476,27657,11282,12,1408
27657,1769,27670,4355,6,465,27682,11276,35,1401
27682,1706,27695,4323,12,460,27707,11276,78,1410
27707,1579,27720,4353,20,451,27732,11280,38,1418
27732,1696,27746,4377,0,443,27762,11278,0,1429
27762,1689,27776,4428,3,443,27792,11285,0,1464
27792,1702,27806,4471,0,452,27822,11297,29,1439
27822,1733,27836,4496,0,470,27852,11289,31,1439
27852,1756,27866,4480,0,468,27877,11274,0,1406
27877,1835,27891,4413,1,456,27902,11271,0,1421
27902,1838,27916,4402,6,465,27928,11265,26,1409
27928,1869,27941,4355,16,440,27953,11292,41,1412
27953,1824,27967,4433,2,437,27983,11255,8,1427
27983,1743,27997,4436,0,431,28013,11280,0,1421
28013,1931,28027,4444,0,448,28043,11269,0,1431
28043,929,28057,4478,1,459,28073,11304,7,1442
28073,1557,28087,4483,6,467,28103,11317,26,1428
28103,1848,28117,4423,29,434,28133,11286,12,1421
28133,2019,28147,4396,25,444,28158,11276,0,1418
28158,1999,28173,4412,3,438,28188,11277,21,1405
28188,2055,28203,4391,0,440,28219,11279,1,1396
28219,2127,28233,4474,0,444,28249,11263,5,1398
28249,1983,28263,4493,0,450,28279,11248,0,1413
28279,1985,28293,4477,2,458,28309,11259,0,1423
28309,1885,28323,4429,17,446,28339,11256,1,1434
28339,1964,28353,4406,29,441,28369,11295,0,1420
28369,1959,28384,4417,13,430,28399,11289,35,1432
28399,2017,28414,4392,5,438,28429,11282,19,1421
28429,1994,28444,4401,0,427,28459,11264,16,1418
28459,2043,28474,4408,0,453,28490,11253,1,1378
28490,1840,28504,4480,10,472,28520,11267,9,1380
28520,1843,28534,4444,24,445,28550,11243,0,1399
28550,1807,28564,4415,11,426,28580,11264,0,1388
28580,1868,28595,4396,8,433,28610,11261,0,1420
28610,1823,28625,4408,2,435,28640,11277,0,1427
28640,1970,28655,4404,0,451,28670,11289,24,1418
28670,1885,28685,4405,5,477,28700,11284,29,1406
28700,1861,28715,4428,10,460,28730,11301,6,1393
28730,1825,28745,4431,11,460,28761,11278,3,1388
28761,1899,28775,4419,9,437,28791,11276,7,1392
28791,2127,28806,4401,1,427,28821,11260,0,1394
28821,1459,28836,4398,0,452,28851,11263,0,1400
28851,1980,28866,4420,0,451,28881,11274,0,1417
28881,2137,28896,4415,0,458,28911,11297,0,1436
28911,2250,28926,4437,18,447,28941,11294,6,1431
28941,2387,28956,4436,15,444,28971,11295,24,1423
28971,2485,28986,4431,17,441,29001,11288,9,1418
29001,2491,29017,4403,0,429,29032,11283,22,1417
29032,2553,29047,4389,2,447,29062,11282,0,1391
29062,2336,29077,4411,0,446,29092,11259,0,1414
29092,2318,29107,4402,0,461,29122,11272,0,1413
29122,2271,29137,4418,8,459,29152,11276,0,1428
29152,2348,29167,4403,40,444,29182,11265,0,1421
29182,2319,29197,4384,13,447,29212,11309,8,1423
29212,2358,29228,4378,2,429,29242,11285,12,1424
29242,2382,29258,4349,9,430,29272,11294,24,1416
29272,2288,29288,4363,1,445,29302,11271,5,1397
29302,2304,29318,4393,0,471,29333,11281,0,1414
29333,2322,29348,4408,2,459,29363,11282,0,1378
29363,2279,29378,4407,27,450,29393,11259,0,1401
29393,2262,29408,4398,16,435,29423,11292,0,1387
29423,2259,29439,4405,1,432,29453,11328,0,1410
29453,2149,29469,4384,4,448,29483,11299,0,1407
29483,2102,29499,4378,0,458,29513,11288,2,1402
29513,2279,29529,4376,0,481,29543,11279,15,1396
29543,1120,29559,4402,7,477,29573,11267,9,1381
29573,1843,29589,4421,7,468,29604,11265,7,1386
29604,1958,29619,4401,19,446,29634,11271,0,1386
29634,2001,29650,4400,7,442,29664,11368,0,1391
29664,1947,29680,4425,0,447,29694,11366,0,1400
29694,2070,29710,4456,1,474,29724,11342,0,1418
29724,2039,29740,4479,0,479,29754,11304,0,1409
29754,2145,29770,4500,29,478,29784,11276,10,1443
29784,2003,29800,4473,16,454,29814,11256,12,1430
29814,1979,29830,4457,23,456,29844,11288,24,1413
29844,1872,29856,4451,21,442,29869,11339,20,1414
29869,1939,29881,4445,56,453,29895,11357,0,1406
29895,1911,29911,4426,1,442,29925,11345,0,1402
29925,1813,29941,4440,9,466,29955,11348,0,1421
29955,1983,29971,4483,13,466,29985,11350,0,1425
29985,1946,30001,4459,12,463,30015,11356,0,1445
30015,1981,30031,4449,17,454,30045,11303,11,1448
30045,1942,30057,4452,20,436,30070,11212,20,1430
30070,1950,30082,4436,29,440,30095,11241,21,1436
30095,1985,30107,4466,63,452,30120,11259,14,1429
30120,2034,30132,4461,13,457,30145,11286,20,1409
30145,2107,30157,4454,20,485,30171,11304,14,1406
30171,2135,30187,4475,0,460,30201,11270,4,1395
30201,2010,30217,4472,26,449,30231,11317,0,1417
30231,2058,30247,4479,14,451,30261,11300,0,1418
30261,2256,30273,4472,22,440,30286,11167,0,1427
30286,1077,30298,4490,41,446,30311,11101,0,1434
30311,1751,30323,4491,41,464,30336,11012,0,1412
30336,2082,30348,4490,24,466,30361,10989,15,1425
30361,2145,30373,4496,14,467,30386,10982,21,1393
30386,2097,30398,4519,19,463,30411,11001,10,1402
30411,2090,30423,4516,14,445,30436,11049,15,1402
30436,2142,30448,4512,0,435,30462,11051,12,1395
30462,2017,30474,4538,2,442,30487,10956,0,1383
30487,1984,30499,4526,39,445,30512,10964,0,1388
30512,1968,30524,4516,66,446,30537,10970,0,1401
30537,1845,30549,4522,43,473,30562,10993,0,1420
30562,1772,30574,4520,9,482,30587,11002,0,1425
30587,1746,30599,4511,41,460,30612,10986,0,1418
30612,1815,30624,4508,31,473,30637,10996,13,1429
30637,1853,30649,4507,11,452,30662,11033,31,1413
30662,1719,30675,4514,0,427,30687,11059,0,1397
30687,1696,30700,4504,0,422,30712,11041,1,1421
30712,1732,30725,4496,1,452,30738,11009,7,1397
30738,1728,30750,4526,28,476,30763,10988,0,1381
30763,1644,30775,4512,5,471,30788,11013,0,1392
30788,1606,30800,4497,28,464,30813,11010,0,1390
30813,1698,30825,4510,20,472,30838,10988,0,1415
30838,1808,30850,4512,16,459,30863,10995,0,1426
30863,1767,30875,4509,0,459,30888,10969,5,1434
30888,1812,30901,4505,7,451,30913,11044,12,1425
30913,1728,30926,4494,0,438,30938,11038,13,1416
30938,1745,30951,4507,0,433,30963,11066,0,1406
30963,1737,30976,4488,0,461,30988,11046,0,1393
30988,1999,31001,4500,5,477,31014,11040,0,1390
31014,921,31026,4511,3,463,31039,11019,0,1387
31039,1840,31051,4499,11,469,31064,11048,0,1389
31064,1908,31076,4508,8,455,31089,11034,0,1393
31089,1945,31102,4495,0,442,31114,11055,38,1415
31114,1943,31127,4493,3,438,31139,11033,23,1418
31139,1955,31152,4488,0,435,31164,11049,7,1422
31164,1970,31177,4494,0,457,31189,11028,37,1408
31189,1974,31202,4492,0,478,31214,11043,20,1420
31214,2038,31227,4453,5,456,31239,11018,24,1400
31239,1974,31252,4418,10,470,31264,11013,0,1393
31264,1856,31277,4436,12,468,31290,11011,28,1387
31290,1919,31303,4504,0,457,31315,11027,24,1395
31315,1967,31328,4494,7,434,31340,11038,42,1378
31340,1852,31353,4500,0,463,31365,11054,66,1399
31365,1807,31378,4492,0,455,31390,11045,29,1400
31390,1845,31403,4499,4,479,31415,11047,24,1418
31415,1838,31428,4485,0,472,31440,11056,14,1429
31440,1850,31453,4443,13,467,31465,11051,3,1402
31465,1793,31478,4422,13,456,31490,11044,9,1413
31490,1867,31503,4438,3,462,31515,11026,7,1392
31515,1887,31529,4527,2,444,31540,11047,0,1402
31540,1931,31554,4592,3,453,31566,11028,0,1394
31566,1906,31579,4467,0,449,31591,11028,16,1399
31591,2021,31604,4493,0,481,31616,11042,20,1378
31616,2074,31629,4478,13,472,31641,11024,59,1398
31641,2005,31654,4461,26,466,31666,11024,37,1389
31666,1998,31679,4429,32,449,31691,11040,14,1428
31691,2174,31704,4461,30,446,31716,11051,3,1426
31716,2288,31730,4503,0,443,31746,11041,7,1418
31746,1680,31760,4519,0,451,31776,11054,2,1410
31776,2285,31790,4563,0,444,31806,11052,18,1408
31806,2235,31820,4600,0,476,31831,11049,0,1401
31831,2321,31845,4504,0,477,31857,11036,0,1384
31857,2378,31870,4442,13,490,31882,11038,35,1389
31882,2318,31895,4429,16,458,31907,11037,54,1406
31907,2286,31920,4459,18,452,31932,11026,59,1388
31932,2311,31946,4529,0,446,31962,11027,0,1399
31962,2163,31976,4518,0,433,31992,11023,0,1415
31992,2151,32006,4559,0,460,32022,11045,12,1413
32022,2112,32036,4580,0,455,32052,11052,30,1420
32052,2102,32066,4556,14,464,32082,11057,14,1398
32082,2000,32096,4501,15,452,32107,11039,0,1395
32107,1999,32121,4511,0,439,32133,11050,9,1393
32133,2012,32147,4509,0,435,32163,11026,5,1399
32163,1977,32177,4497,1,446,32193,11038,0,1384
32193,1969,32207,4557,0,442,32223,11015,0,1401
32223,1930,32237,4567,1,455,32253,11022,0,1416
32253,1948,32267,4574,10,449,32283,11049,0,1406
32283,1939,32297,4528,27,452,32313,11045,11,1406
32313,1970,32327,4495,10,441,32343,11047,26,1404
32343,2007,32358,4491,19,434,32373,11029,17,1382
32373,1953,32388,4482,0,433,32403,11021,15,1383
32403,1846,32418,4489,0,455,32434,11022,5,1373
32434,2119,32448,4606,0,452,32464,11009,7,1378
32464,1040,32478,4569,27,453,32494,11020,0,1387
32494,1942,32508,4504,12,450,32524,11012,0,1397
32524,1833,32538,4506,9,441,32554,11020,0,1386
32554,1872,32569,4506,0,432,32584,11040,4,1391
32584,1936,32599,4485,0,446,32614,11039,28,1388
32614,1936,32629,4501,0,463,32644,11036,23,1374
32644,1886,32659,4517,0,472,32674,11044,20,1370
32674,1870,32689,4521,11,458,32705,11015,7,1372
32705,1815,32719,4498,30,458,32735,11018,3,1336
32735,1878,32750,4513,32,460,32765,11023,0,1371
32765,1936,32780,4483,0,433,32795,11023,0,1368
32795,1971,32810,4486,0,432,32825,11034,0,1382
32825,1950,32840,4505,0,459,32855,11035,0,1400
32855,1966,32870,4508,0,467,32885,11050,14,1393
32885,1961,32900,4527,19,468,32915,11045,17,1389
32915,2037,32930,4515,36,458,32945,11053,7,1394
32945,1969,32961,4513,5,440,32975,11023,14,1381
32975,2017,32991,4505,0,434,33006,11031,9,1385
33006,1958,33021,4476,0,432,33036,11014,0,1376
33036,1986,33051,4491,0,462,33066,11008,0,1388
33066,1914,33081,4525,0,446,33096,11023,0,1412
33096,1968,33111,4527,34,460,33126,11028,0,1409
33126,1834,33141,4519,10,437,33156,11034,0,1397
33156,2109,33172,4495,22,435,33186,11041,12,1403
33186,1670,33202,4485,0,434,33216,11021,23,1391
33216,1744,33232,4484,0,440,33246,11034,14,1387
33246,2085,33262,4483,0,457,33277,11027,14,1379
33277,2151,33292,4491,0,455,33307,11012,5,1364
33307,2099,33322,4507,8,456,33337,11002,0,1371
33337,2254,33352,4487,0,443,33367,11009,3,1379
33367,2224,33383,4488,0,438,33397,11092,0,1379
33397,2303,33413,4483,0,428,33427,11039,0,1381
33427,2207,33443,4472,0,443,33457,11034,19,1389
33457,2183,33473,4488,0,470,33487,11028,20,1381
33487,2135,33503,4505,10,460,33517,11014,18,1359
33517,2237,33533,4522,14,469,33547,11025,30,1366
33547,2147,33563,4490,5,446,33578,11031,10,1362
33578,2151,33594,4486,0,438,33608,11070,6,1367
33608,2106,33624,4470,0,438,33638,11112,0,1374
33638,2159,33654,4475,0,435,33668,11111,0,1390
33668,2051,33684,4475,0,463,33698,11086,8,1413
33698,2128,33714,4488,19,458,33728,11043,0,1405
33728,1996,33744,4496,29,462,33758,11033,12,1405
33758,2112,33774,4502,31,443,33788,11011,24,1398
33788,2023,33800,4486,28,440,33813,11056,18,1383
33813,2069,33825,4483,29,433,33839,11105,8,1402
33839,1984,33855,4453,0,428,33869,11069,0,1408
33869,1922,33885,4479,11,459,33899,11119,0,1402
33899,2294,33915,4493,7,481,33929,11096,0,1415
33929,957,33945,4497,25,459,33959,11098,0,1425
33959,2096,33975,4490,24,444,33989,11070,3,1432
33989,2109,34006,4471,8,437,34019,10962,11,1416
34019,2111,34031,4487,37,443,34044,10973,25,1420
34044,2073,34056,4492,65,444,34069,11002,18,1405
34069,2111,34081,4489,22,465,34094,11039,15,1403
34094,2192,34106,4484,3,466,34120,11110,22,1392
34120,2192,34136,4492,12,450,34150,11047,0,1387
34150,2189,34166,4493,3,466,34180,11085,0,1406
34180,2081,34196,4493,0,457,34210,11092,0,1403
34210,2064,34222,4464,7,448,34235,10998,0,1400
34235,2064,34247,4473,42,440,34260,10999,0,1435
34260,2067,34272,4475,52,457,34285,10948,2,1417
34285,2071,34297,4480,11,449,34310,10973,7,1410
34310,2099,34322,4482,17,483,34335,10989,21,1408
34335,2257,34347,4483,14,466,34360,11017,13,1419
34360,2157,34372,4483,15,449,34385,11059,20,1396
34385,2094,34397,4467,0,447,34411,11108,10,1401
34411,2090,34423,4483,9,437,34436,10998,0,1374
34436,2091,34448,4478,40,430,34461,11018,0,1388
34461,2003,34473,4484,64,436,34486,10998,0,1401
34486,1979,34498,4460,31,463,34511,10999,0,1409
34511,1994,34523,4471,16,466,34536,10974,0,1407
34536,2029,34548,4483,14,462,34561,10970,0,1422
34561,1968,34573,4491,7,473,34586,10947,25,1415
34586,1984,34598,4490,0,455,34611,10978,32,1412
34611,2131,34624,4490,15,451,34636,11014,1,1395
34636,1888,34649,4477,0,432,34661,11010,0,1411
34661,1405,34674,4454,0,454,34687,11010,0,1390
34687,2014,34699,4498,32,459,34712,11025,0,1400
34712,2122,34724,4471,1,476,34737,11010,0,1371
34737,2177,34749,4475,22,471,34762,11017,0,1389
34762,2131,34774,4493,7,477,34787,11002,2,1419
34787,2147,34799,4482,16,459,34812,10994,0,1400
34812,2195,34824,4471,2,449,34837,10964,0,1415
34837,2214,34850,4485,7,445,34862,11038,32,1412
34862,2113,34875,4461,4,445,34887,11013,9,1406
34887,2054,34900,4460,0,453,34912,11021,17,1415
34912,2061,34925,4474,19,451,34937,11008,1,1402
34937,2078,34950,4465,0,475,34962,11012,0,1394
34962,1980,34975,4449,15,469,34988,11009,8,1390
34988,2073,35000,4473,12,464,35013,11009,0,1373
35013,2091,35025,4487,9,446,35038,11008,19,1402
35038,2032,35051,4481,0,443,35063,11033,42,1391
35063,1924,35076,4463,1,446,35088,11026,31,1426
35088,1889,35101,4472,0,447,35113,11023,16,1417
35113,1958,35126,4470,0,469,35138,11021,18,1422
35138,1938,35151,4470,0,485,35163,11031,3,1414
35163,1856,35176,4452,2,470,35188,11027,12,1407
35188,1900,35201,4398,23,473,35213,11013,0,1409
35213,1923,35226,4428,13,453,35238,11005,8,1400
35238,1931,35252,4454,9,456,35264,11006,8,1385
35264,1725,35277,4472,0,417,35289,11018,20,1388
35289,1773,35302,4456,0,449,35314,11021,43,1396
35314,1849,35327,4488,0,465,35339,11022,55,1406
35339,2025,35352,4457,3,457,35364,11017,24,1420
35364,806,35377,4455,12,467,35389,11027,15,1430
35389,1533,35402,4413,11,459,35414,11030,15,1418
35414,1776,35427,4423,18,454,35439,11021,10,1418
35439,1700,35453,4424,12,451,35469,11051,11,1423
35469,1744,35483,4464,0,437,35499,11036,0,1399
35499,1879,35513,4512,0,449,35524,11026,0,1398
35524,1829,35538,4545,0,464,35550,11030,10,1390
35550,1872,35563,4437,0,467,35575,11012,15,1389
35575,1859,35588,4441,8,467,35600,11031,41,1388
35600,1774,35613,4395,14,461,35625,11017,66,1382
35625,1680,35638,4433,0,460,35650,11029,27,1403
35650,1693,35664,4431,23,438,35680,11017,0,1419
35680,1680,35694,4478,0,428,35710,11035,0,1433
35710,1792,35724,4509,0,450,35740,11048,17,1409
35740,1779,35754,4562,0,466,35770,11042,29,1395
35770,1847,35784,4560,5,466,35795,11010,0,1399
35795,1871,35809,4482,12,482,35820,11036,0,1396
35820,1860,35834,4474,33,428,35846,11017,39,1383
35846,1794,35859,4426,6,442,35871,11032,51,1374
35871,1792,35885,4474,0,424,35901,11012,3,1392
35901,1745,35915,4497,0,445,35931,11028,0,1402
35931,1791,35945,4533,0,440,35961,11014,7,1417
35961,1535,35975,4551,0,466,35991,11035,0,1428
35991,1497,36005,4543,13,442,36021,11031,13,1412
36021,1855,36035,4488,5,448,36051,11033,37,1422
36051,1004,36065,4479,35,436,36076,11032,0,1390
36076,1648,36091,4480,0,424,36106,11025,27,1401
36106,1859,36121,4456,0,427,36137,11029,0,1384
36137,1926,36151,4528,0,446,36167,11004,0,1381
36167,1913,36181,4577,0,449,36197,10985,5,1382
36197,2069,36211,4547,12,447,36227,11007,0,1415
36227,2030,36241,4504,28,444,36257,11000,4,1413
36257,2075,36271,4468,5,445,36287,11016,0,1406
36287,1968,36302,4479,10,403,36317,11028,23,1401
36317,1958,36332,4466,0,424,36347,11038,25,1389
36347,1943,36362,4470,1,439,36377,11025,16,1387
36377,1953,36392,4472,0,481,36408,11005,0,1377
36408,1934,36422,4547,19,467,36438,11017,9,1361
36438,1958,36452,4506,9,447,36468,11005,0,1362
36468,1958,36482,4495,15,462,36498,11014,0,1370
36498,1973,36513,4477,6,442,36528,11026,0,1393
36528,1953,36543,4466,0,447,36558,11042,0,1390
36558,1989,36573,4484,0,465,36588,11043,4,1397
36588,1989,36603,4508,0,475,36618,11028,29,1396
36618,2013,36633,4526,0,471,36648,11041,1,1387
36648,2032,36663,4511,12,457,36678,11038,16,1385
36678,2003,36693,4505,7,448,36709,11030,3,1372
36709,2353,36724,4507,2,420,36739,11016,12,1381
36739,1348,36754,4493,0,435,36769,11004,0,1384
36769,2045,36784,4511,0,447,36799,11014,0,1406
36799,2000,36814,4493,11,477,36829,11024,0,1413
36829,2075,36844,4535,0,465,36859,11043,0,1421
36859,2057,36874,4521,35,449,36889,11037,10,1416
36889,2115,36904,4504,7,447,36919,11042,28,1395
36919,2163,36935,4508,3,421,36949,11014,5,1389
36949,2128,36965,4481,0,435,36980,11036,3,1388
36980,1984,36995,4487,0,455,37010,11008,0,1378
37010,2074,37025,4506,0,454,37040,10982,0,1376
37040,2034,37055,4507,23,467,37070,11024,0,1379
37070,2099,37085,4502,22,453,37100,11012,0,1389
37100,2067,37115,4499,29,444,37130,11033,0,1402
37130,2141,37146,4482,10,432,37160,11018,18,1393
37160,2121,37176,4481,3,425,37190,11028,26,1406
37190,2096,37206,4474,0,475,37220,11024,17,1373
37220,2001,37236,4515,0,477,37251,11034,22,1367
37251,2039,37266,4514,19,467,37281,11022,0,1351
37281,1987,37296,4511,25,443,37311,10998,0,1351
37311,2064,37326,4500,13,453,37341,10989,0,1364
37341,1904,37357,4482,17,429,37371,11076,0,1386
37371,1966,37387,4480,0,461,37401,11053,0,1382
37401,2192,37417,4496,0,453,37431,11013,5,1362
37431,1030,37447,4500,0,481,37461,11013,7,1383
37461,1958,37477,4512,18,465,37491,11022,14,1373
37491,2042,37507,4520,28,466,37521,11023,5,1370
37521,1971,37537,4504,9,447,37552,11024,16,1357
37552,2043,37568,4491,1,450,37582,11066,1,1375
37582,1995,37598,4497,0,451,37612,11094,0,1377
37612,2043,37628,4504,0,465,37642,11070,0,1386
37642,1998,37658,4494,0,468,37672,11068,0,1416
37672,2011,37688,4541,22,461,37702,11026,6,1409
37702,1929,37718,4509,30,463,37732,11016,17,1412
37732,1998,37749,4493,25,447,37762,10955,34,1408
37762,1904,37774,4509,31,435,37787,11031,6,1405
37787,1958,37799,4508,53,457,37813,11085,27,1387
37813,2018,37829,4508,9,458,37843,11050,0,1395
37843,1874,37859,4523,0,463,37873,11094,0,1392
37873,1985,37889,4545,10,463,37903,11086,0,1390
37903,1888,37919,4520,18,455,37933,11082,0,1411
37933,1885,37949,4502,1,442,37963,11041,0,1413
37963,1747,37975,4508,14,442,37988,10938,0,1425
37988,1847,38000,4501,28,425,38013,10948,13,1418
38013,1890,38025,4508,51,442,38038,10958,24,1401
38038,1859,38050,4504,17,469,38063,11003,15,1400
38063,1766,38075,4492,27,479,38088,11090,9,1405
38088,1837,38100,4524,15,459,38114,11092,14,1387
38114,2032,38130,4519,10,451,38144,11068,1,1381
38144,1783,38160,4511,13,436,38174,11096,0,1391
38174,1599,38186,4508,0,453,38199,11011,0,1396
38199,1883,38211,4515,22,444,38224,10975,1,1411
38224,1991,38236,4512,49,449,38249,10961,0,1424
38249,2106,38261,4512,22,464,38274,10948,7,1417
38274,2106,38286,4507,11,474,38299,10977,20,1403
38299,2090,38311,4527,7,466,38324,10982,31,1405
38324,2114,38336,4510,14,462,38349,11027,4,1383
38349,2252,38361,4508,2,465,38375,11089,16,1401
38375,2176,38392,4483,10,438,38405,10997,0,1396
38405,2022,38417,4514,45,450,38430,11005,0,1381
38430,2035,38442,4498,68,435,38455,10993,2,1393
38455,1993,38467,4513,17,471,38480,11005,0,1395
38480,1969,38492,4505,14,465,38505,10973,0,1406
38505,1982,38517,4500,23,477,38530,10949,4,1418
38530,2183,38542,4514,10,458,38555,10942,21,1418
38555,2260,38567,4509,16,458,38580,10949,14,1396
38580,2263,38593,4502,13,452,38605,11013,21,1406
38605,2245,38618,4506,0,445,38630,11009,0,1396
38630,2334,38643,4492,5,447,38656,11004,6,1402
38656,2288,38668,4517,40,462,38681,10995,9,1384
38681,2305,38693,4504,11,475,38706,10995,7,1376
38706,2329,38718,4502,11,478,38731,10993,0,1385
38731,2432,38743,4510,19,476,38756,10996,0,1398
38756,2346,38768,4518,12,449,38781,10985,0,1405
38781,2289,38793,4518,0,440,38806,10959,0,1420
38806,2320,38819,4512,10,434,38831,11015,19,1428
38831,2331,38844,4487,0,436,38856,11023,20,1426
38856,2172,38869,4498,0,451,38881,11008,12,1400
38881,2047,38894,4496,0,446,38906,11014,5,1394
38906,2231,38919,4490,11,474,38931,10993,6,1391
38931,1011,38944,4463,2,466,38957,10991,0,1396
38957,1361,38969,4505,34,465,38982,10996,4,1384
38982,1578,38994,4517,0,445,39007,10997,0,1395
39007,1509,39020,4507,0,448,39032,11013,44,1392
39032,1430,39045,4486,0,430,39057,11019,25,1417
39057,1350,39070,4491,0,454,39082,11011,24,1421
39082,1328,39095,4504,0,483,39107,11016,15,1422
39107,1392,39120,4479,0,482,39132,10995,21,1416
39132,1444,39145,4477,0,466,39157,11020,15,1417
39157,1329,39170,4433,26,459,39182,11004,0,1406
39182,1207,39195,4435,9,445,39207,11005,0,1400
39207,1214,39221,4459,12,443,39233,11018,24,1395
39233,1255,39246,4489,0,436,39258,11015,28,1384
39258,1115,39271,4484,0,441,39283,11008,69,1385
39283,1073,39296,4497,0,446,39308,11016,51,1394
39308,1216,39321,4490,5,463,39333,11014,24,1397
39333,1315,39346,4489,0,472,39358,11020,6,1418
39358,1379,39371,4456,4,458,39383,11014,15,1415
39383,1414,39396,4418,7,457,39408,11027,2,1427
39408,1573,39421,4443,22,454,39433,11013,15,1413
39433,1634,39447,4512,0,432,39458,11012,0,1398
39458,1630,39472,4588,8,446,39483,11010,0,1395
39483,1703,39497,4583,0,434,39509,11010,0,1391
39509,1838,39522,4477,0,455,39534,10991,10,1378
39534,1951,39547,4493,0,466,39559,11008,16,1385
39559,1924,39572,4454,2,471,39584,11008,56,1401
39584,1886,39597,4416,6,477,39609,11000,8,1393
39609,1930,39622,4422,7,457,39634,11011,15,1418
39634,2003,39648,4454,11,456,39664,11021,0,1423
39664,2247,39678,4503,4,430,39694,11038,17,1408
39694,1441,39708,4538,0,450,39724,11024,28,1403
39724,2032,39738,4600,0,471,39749,11002,0,1392
39749,2107,39763,4525,0,477,39774,11012,0,1392
39774,2177,39788,4487,12,465,39800,11013,23,1376
39800,2114,39813,4407,32,453,39825,10999,50,1397
39825,2227,39838,4436,9,431,39850,11002,47,1398
39850,2240,39864,4469,0,431,39880,10982,0,1405
39880,2112,39894,4516,0,433,39910,11005,0,1410
39910,2111,39924,4553,0,444,39940,11012,11,1417
39940,1977,39954,4586,0,465,39970,11034,30,1400
39970,2055,39984,4563,3,454,40000,11014,42,1423
40000,1958,40014,4523,19,442,40030,11004,20,1393
40030,2064,40044,4498,20,443,40055,11012,0,1394
40055,2098,40070,4495,15,426,40086,10996,6,1399
40086,2084,40100,4492,7,415,40116,11007,1,1386
40116,2067,40130,4529,0,434,40146,10997,0,1401
40146,2090,40160,4582,9,454,40176,11014,0,1391
40176,1927,40190,4569,2,466,40206,11000,0,1401
40206,1963,40220,4532,23,446,40236,11026,0,1426
40236,1943,40250,4469,0,437,40266,11027,5,1412
40266,1955,40281,4467,7,413,40296,11023,9,1398
40296,1927,40311,4477,1,406,40326,11009,2,1385
40326,2053,40341,4472,0,436,40357,11001,18,1388
40357,1821,40371,4555,9,456,40387,10997,10,1382
40387,1819,40401,4554,0,457,40417,10988,0,1384
40417,2031,40431,4520,30,451,40447,10982,0,1379
40447,1017,40461,4468,18,438,40477,10997,0,1393
40477,1635,40492,4465,0,433,40507,11003,0,1408
40507,2029,40522,4468,0,419,40537,11012,17,1391
40537,1997,40552,4440,0,438,40567,11019,9,1388
40567,2112,40582,4473,0,477,40597,11012,9,1362
40597,2128,40612,4486,8,465,40627,11012,12,1366
40627,2235,40642,4499,13,467,40658,11002,0,1358
40658,2207,40672,4479,13,451,40688,10993,1,1355
40688,2156,40703,4459,0,446,40718,10977,0,1362
40718,2039,40733,4455,0,418,40748,11001,0,1378
40748,2077,40763,4458,0,429,40778,11014,2,1400
40778,2000,40793,4456,0,476,40808,11023,0,1391
40808,2027,40823,4484,0,462,40838,11027,1,1401
40838,1964,40853,4492,15,447,40868,11025,28,1392
40868,2066,40883,4486,14,440,40898,10995,16,1378
40898,1968,40914,4470,0,445,40929,11010,11,1385
40929,2042,40944,4450,0,424,40959,11004,3,1356
40959,1981,40974,4451,0,435,40989,11008,0,1375
40989,2000,41004,4462,0,460,41019,11008,0,1388
41019,1899,41034,4473,9,451,41049,11004,0,1410
41049,2059,41064,4487,25,473,41079,11020,0,1424
41079,1984,41094,4495,20,441,41109,11043,19,1399
41109,2077,41125,4451,0,433,41139,10993,31,1401
41139,2028,41155,4459,0,444,41169,11019,11,1389
41169,2083,41185,4439,0,453,41200,10992,5,1359
41200,2045,41215,4465,0,475,41230,11011,0,1361
41230,2416,41245,4466,7,469,41260,11000,0,1369
41260,1196,41275,4472,18,480,41290,11002,0,1387
41290,2161,41305,4487,18,458,41320,10995,3,1398
41320,2098,41336,4461,0,431,41350,11032,0,1396
41350,2160,41366,4454,0,437,41380,11008,14,1388
41380,2112,41396,4462,0,460,41410,11000,29,1376
41410,2208,41426,4470,0,485,41440,11000,19,1364
41440,2118,41456,4476,10,484,41471,10991,16,1360
41471,2118,41486,4468,14,457,41501,10995,0,1344
41501,1953,41516,4484,0,450,41531,10991,3,1361
41531,2064,41547,4483,6,444,41561,11091,9,1360
41561,1987,41577,4440,0,449,41591,11071,0,1388
41591,2064,41607,4467,0,432,41621,11055,0,1396
41621,1970,41637,4448,6,475,41651,11010,16,1374
41651,2165,41667,4493,6,458,41681,10995,21,1390
41681,2096,41697,4473,31,465,41711,11009,36,1379
41711,2135,41727,4493,13,435,41741,11007,27,1388
41741,2117,41753,4468,0,436,41767,11077,8,1371
41767,2143,41783,4441,12,444,41797,11062,0,1379
41797,2096,41813,4444,0,457,41827,11092,0,1385
41827,2166,41843,4466,0,461,41857,11068,0,1387
41857,2144,41873,4496,0,478,41887,11071,0,1418
41887,2143,41903,4485,32,472,41917,11035,1,1412
41917,2154,41933,4476,21,461,41947,11001,15,1397
41947,2189,41964,4474,16,449,41977,10950,22,1404
41977,2117,41989,4457,37,444,42002,11011,12,1408
42002,2128,42014,4480,53,457,42027,11076,15,1391
42027,2065,42039,4471,20,467,42053,11081,5,1391
42053,2035,42069,4476,0,469,42083,11061,0,1385
42083,2384,42099,4496,17,477,42113,11098,15,1400
42113,1313,42129,4491,24,455,42143,11083,0,1406
42143,2000,42160,4473,17,453,42173,10967,0,1429
42173,2004,42185,4484,27,436,42198,10929,0,1411
42198,1971,42210,4480,51,433,42223,10948,10,1420
42223,2000,42235,4471,17,468,42248,10948,29,1415
42248,2031,42260,4473,32,487,42273,10990,12,1405
42273,2064,42285,4473,16,469,42298,11030,9,1398
42298,2043,42310,4478,0,457,42324,11085,14,1389
42324,2079,42340,4478,28,458,42354,11072,0,1397
42354,1952,42371,4461,26,455,42384,10985,0,1399
42384,1904,42396,4499,36,440,42409,10985,0,1393
42409,1963,42421,4461,63,448,42434,10988,0,1406
42434,1915,42446,4482,48,451,42459,10941,0,1419
42459,1824,42471,4467,13,462,42484,10934,0,1423
42484,1937,42496,4459,31,477,42509,10948,25,1413
42509,1994,42521,4469,17,491,42534,10950,30,1428
42534,1949,42546,4463,12,441,42559,11009,18,1392
42559,1902,42571,4471,7,437,42584,11075,17,1399
42584,1904,42597,4453,1,438,42610,10983,6,1380
42610,1907,42622,4464,45,451,42635,10983,3,1386
42635,1817,42647,4463,50,440,42660,10998,0,1377
42660,1817,42672,4468,38,480,42685,10988,0,1392
42685,1883,42697,4462,8,481,42710,10976,0,1411
42710,1950,42722,4459,13,466,42735,10977,0,1422
42735,1890,42747,4486,29,457,42760,10930,4,1416
42760,1889,42772,4458,0,455,42785,10947,21,1399
42785,1969,42798,4468,0,429,42810,10998,26,1427
42810,1975,42823,4461,0,430,42835,11000,3,1392
42835,1886,42848,4459,0,440,42860,10981,4,1400
42860,1904,42873,4462,0,463,42886,10989,0,1398
42886,1959,42898,4452,19,473,42911,10978,6,1381
42911,1995,42923,4480,3,470,42936,10977,0,1388
42936,2080,42948,4461,9,462,42961,10979,1,1388
42961,2100,42973,4489,4,456,42986,10972,0,1410
42986,1499,42999,4468,0,460,43011,10992,7,1410
43011,2063,43024,4469,0,439,43036,10995,13,1416
43036,1997,43049,4467,0,456,43061,10991,17,1418
43061,1959,43074,4455,0,459,43086,10992,9,1415
43086,2065,43099,4459,0,475,43111,10996,20,1400
43111,1987,43124,4453,7,460,43136,10992,1,1387
43136,1967,43149,4429,19,475,43162,10990,9,1395
43162,2158,43174,4472,4,447,43187,10966,0,1390
43187,2179,43199,4488,10,443,43212,10991,0,1403
43212,2032,43225,4458,0,458,43237,11004,75,1388
43237,1826,43250,4465,7,439,43262,10995,29,1404
43262,1873,43275,4454,0,447,43287,11006,19,1410
43287,1909,43300,4473,0,475,43312,10996,16,1414
43312,1741,43325,4454,0,478,43337,10998,20,1399
43337,1798,43350,4444,27,461,43362,10988,15,1426
43362,1866,43375,4402,32,467,43387,10984,22,1394
43387,1904,43400,4406,15,457,43412,10991,0,1419
43412,1881,43426,4447,18,445,43438,11010,2,1388
43438,1904,43451,4464,6,439,43463,11001,9,1393
43463,1905,43476,4456,0,456,43488,10998,28,1368
43488,1941,43501,4464,0,456,43513,11002,64,1397
43513,1885,43526,4463,0,486,43538,11009,46,1406
43538,1814,43551,4433,0,467,43563,11004,3,1400
43563,1903,43576,4404,1,476,43588,10988,6,1423
43588,1925,43601,4399,9,460,43613,10995,19,1419
43613,1853,43627,4418,7,444,43643,11022,1,1408
43643,1978,43657,4464,5,416,43673,11019,6,1395
43673,1938,43687,4510,0,462,43698,11007,0,1408
43698,1961,43712,4556,0,469,43724,11011,0,1396
43724,2000,43737,4466,0,471,43749,10990,12,1375
43749,2007,43762,4448,8,466,43774,10990,19,1378
43774,2042,43787,4408,23,493,43799,10989,74,1401
43799,2047,43812,4430,5,455,43824,11011,36,1397
43824,1458,43838,4436,5,438,43854,10979,0,1415
43854,2015,43868,4451,17,440,43884,11002,0,1419
43884,2023,43898,4493,0,443,43914,11012,24,1424
43914,1951,43928,4564,0,471,43944,11012,31,1399
43944,1980,43958,4560,0,483,43969,11000,0,1393
43969,1973,43983,4484,1,479,43994,11005,0,1379
43994,1878,44008,4481,13,456,44020,10996,12,1392
44020,1888,44033,4414,8,455,44045,11000,44,1383
44045,1770,44059,4462,19,466,44075,10986,0,1383
44075,1595,44089,4488,16,448,44105,10986,11,1393
44105,1614,44119,4528,0,454,44135,10989,4,1405
44135,1447,44149,4544,4,466,44165,10999,0,1413
44165,1583,44179,4548,20,460,44195,11004,8,1413
44195,1518,44209,4505,22,455,44225,11020,28,1410
44225,1634,44239,4477,30,442,44250,10999,0,1393
44250,1619,44265,4480,0,427,44280,10998,31,1401
44280,1680,44295,4463,0,423,44311,11000,0,1386
44311,1754,44325,4518,0,427,44341,10990,0,1401
44341,1840,44355,4556,2,439,44371,10975,0,1389
44371,1799,44385,4543,0,452,44401,10982,0,1391
44401,1820,44415,4501,5,437,44431,10983,0,1404
44431,1826,44445,4470,21,425,44461,10999,0,1393
44461,1906,44476,4465,4,428,44491,11018,19,1417
44491,1985,44506,4469,0,435,44521,11000,21,1399
44521,1935,44536,4446,0,439,44551,10994,23,1391
44551,1967,44566,4456,6,465,44582,10995,5,1386
44582,2373,44596,4555,0,442,44612,10976,0,1363
44612,1330,44626,4501,26,459,44642,10971,7,1370
44642,2098,44656,4466,22,446,44672,10984,0,1390
44672,2123,44687,4460,0,444,44702,10984,0,1398
44702,2144,44717,4440,0,441,44732,11002,4,1396
44732,2143,44747,4453,0,445,44762,11004,15,1368
44762,2216,44777,4481,0,490,44792,11012,29,1380
44792,2235,44807,4490,0,472,44822,11018,11,1360
44822,2198,44837,4490,41,459,44853,10999,8,1367
44853,2017,44867,4471,30,441,44883,10991,1,1360
44883,1989,44898,4451,15,426,44913,10990,0,1380
44913,1877,44928,4462,9,435,44943,10991,0,1369
44943,1949,44958,4451,0,456,44973,10992,0,1396
44973,1879,44988,4469,0,464,45003,11017,0,1386
45003,2098,45018,4487,10,459,45033,11029,12,1389
45033,1955,45048,4494,23,453,45063,11024,2,1398
45063,1984,45078,4484,14,430,45093,11010,16,1385
45093,1886,45109,4472,0,430,45123,11009,19,1379
45123,1914,45139,4460,10,432,45154,11000,0,1380
45154,1735,45169,4457,0,442,45184,10979,7,1385
45184,1826,45199,4479,0,473,45214,10980,0,1386
45214,1722,45229,4470,12,465,45244,10989,0,1397
45244,1809,45259,4474,6,445,45274,10996,0,1415
45274,1809,45289,4478,17,463,45304,11015,0,1405
45304,1823,45320,4461,0,447,45334,10974,10,1406
45334,1725,45350,4454,0,452,45364,10993,27,1383
45364,2075,45380,4439,0,436,45394,10993,12,1369
45394,759,45410,4454,0,472,45425,10973,2,1380
45425,1693,45440,4484,0,461,45455,10996,0,1365
45455,1791,45470,4479,33,490,45485,10976,6,1365
45485,1871,45500,4485,19,455,45515,10983,0,1363
45515,1772,45531,4461,2,437,45545,11045,0,1382
45545,1891,45561,4457,0,435,45575,11016,0,1394
45575,1882,45591,4457,0,454,45605,10987,17,1369
45605,1982,45621,4456,0,477,45635,10992,21,1372
45635,1873,45651,4476,11,467,45665,10989,11,1353
45665,1939,45681,4483,27,463,45696,10986,0,1355
45696,1795,45711,4466,0,453,45726,10981,2,1348
45726,1972,45742,4478,0,451,45756,11058,0,1366
45756,1866,45772,4453,0,461,45786,11073,2,1362
45786,2044,45802,4459,0,455,45816,11055,3,1390
45816,1935,45832,4451,2,486,45846,11010,1,1407
45846,2109,45862,4502,8,470,45876,10992,14,1398
45876,2010,45892,4484,30,440,45906,10987,31,1405
45906,2119,45922,4482,17,447,45936,10988,6,1398
45936,1931,45948,4485,16,446,45961,11065,21,1384
45961,1966,45973,4486,43,445,45987,11069,0,1381
45987,1955,46003,4451,0,463,46017,11052,5,1391
46017,1919,46033,4485,0,484,46047,11059,5,1402
46047,2007,46063,4490,8,478,46077,11065,0,1403
46077,2022,46093,4495,27,466,46107,11037,0,1425
46107,2019,46123,4505,26,459,46137,11010,7,1417
46137,1959,46154,4465,6,447,46167,10936,30,1418
46167,2290,46179,4480,47,450,46192,10957,25,1406
46192,1191,46204,4467,69,454,46217,11011,2,1404
46217,1984,46229,4477,18,478,46243,11063,14,1390
46243,2160,46259,4486,0,470,46273,11026,9,1388
46273,2155,46289,4507,0,466,46303,11059,0,1384
46303,2229,46319,4490,3,469,46333,11063,0,1391
46333,2187,46349,4474,0,471,46363,11054,0,1403
46363,2320,46375,4470,7,437,46388,10950,0,1419
46388,2275,46400,4474,12,461,46413,10916,4,1403
46413,2186,46425,4479,50,431,46438,10937,11,1413
46438,2197,46450,4489,15,470,46463,10923,24,1424
46463,2197,46475,4475,23,469,46488,10980,20,1408
46488,2207,46500,4472,1,476,46513,11050,15,1396
46513,2174,46525,4469,14,450,46539,11062,0,1376
46539,2265,46555,4476,6,446,46569,11050,0,1394
46569,2160,46581,4482,19,433,46594,10994,0,1399
46594,2095,46606,4475,48,455,46619,10976,0,1401
46619,2118,46631,4485,58,442,46644,10969,0,1419
46644,2157,46656,4469,23,471,46669,10969,0,1421
46669,2064,46681,4476,16,466,46694,10910,0,1416
46694,2032,46706,4467,22,481,46719,10932,6,1414
46719,2039,46731,4476,11,461,46744,10952,33,1406
46744,2083,46756,4482,3,456,46769,10968,4,1399
46769,1988,46782,4489,1,441,46794,10991,5,1399
46794,1929,46807,4457,0,442,46820,10979,0,1395
46820,1994,46832,4483,78,445,46845,10975,2,1382
46845,2083,46857,4464,24,465,46870,10982,0,1392
46870,1867,46882,4472,5,463,46895,10972,0,1386
46895,1797,46907,4478,40,466,46920,10972,0,1410
46920,2031,46932,4480,27,457,46945,10935,0,1430
46945,2299,46957,4474,20,459,46970,10911,0,1416
46970,858,46983,4468,3,440,46995,10987,16,1413
46995,1693,47008,4471,0,439,47020,10998,22,1393
47020,2019,47033,4458,0,447,47045,10971,12,1411
47045,2066,47058,4454,0,453,47070,10977,7,1398
47070,2037,47083,4453,6,472,47096,10998,0,1397
47096,2057,47108,4476,8,484,47121,10966,0,1392
47121,2106,47133,4473,13,477,47146,10967,0,1392
47146,2164,47158,4482,17,445,47171,10981,0,1386
47171,2067,47183,4471,1,434,47196,10970,0,1408
47196,1988,47209,4467,3,438,47221,10977,5,1413
47221,1979,47234,4453,3,447,47246,10975,16,1416
47246,1902,47259,4468,0,457,47271,10992,21,1413
47271,1840,47284,4461,0,454,47296,10986,22,1414
47296,1843,47309,4454,0,472,47321,10988,15,1392
47321,1917,47334,4427,21,457,47346,10980,0,1399
47346,1904,47359,4405,14,453,47372,10981,0,1392
47372,1959,47384,4479,6,453,47397,10966,5,1386
47397,1958,47410,4474,0,451,47422,10984,43,1373
47422,1924,47435,4465,0,417,47447,10993,73,1389
47447,1884,47460,4459,0,448,47472,10993,33,1406
47472,1797,47485,4442,0,469,47497,10980,23,1400
47497,1882,47510,4448,0,483,47522,11001,15,1418
47522,1904,47535,4441,8,468,47547,10996,23,1415
47547,1872,47560,4398,24,460,47572,10992,6,1414
47572,1858,47585,4411,26,463,47597,10988,15,1402
47597,1955,47611,4437,1,461,47622,10994,0,1391
47622,2053,47636,4514,6,439,47648,10998,6,1402
47648,1862,47661,4460,0,445,47673,10995,22,1386
47673,1811,47686,4457,0,455,47698,10994,40,1399
47698,2105,47711,4466,0,453,47723,10983,55,1392
47723,1678,47736,4443,0,466,47748,10989,4,1391
47748,1450,47761,4418,5,454,47773,10979,13,1414
47773,1920,47786,4411,11,451,47798,10990,9,1421
47798,2059,47811,4425,1,465,47823,10990,14,1408
47823,2065,47837,4500,0,435,47853,11003,19,1402
47853,1923,47867,4494,0,447,47878,10990,0,1392
47878,2027,47892,4555,0,431,47903,10987,0,1398
47903,2071,47917,4535,0,484,47929,10981,0,1388
47929,2000,47942,4444,6,458,47954,10984,21,1368
47954,1914,47967,4438,18,492,47979,10987,34,1398
47979,1954,47992,4401,28,450,48004,10987,55,1395
48004,1885,48017,4429,1,457,48029,10986,32,1413
48029,1808,48043,4491,0,434,48059,10990,0,1399
48059,1878,48073,4488,7,433,48089,10990,0,1417
48089,1798,48103,4536,0,470,48119,11011,27,1399
48119,1877,48133,4563,0,482,48149,10996,41,1401
48149,1822,48163,4534,18,476,48174,10982,0,1398
48174,1805,48188,4473,16,462,48200,10992,0,1389
48200,1854,48213,4414,17,455,48225,11000,45,1380
48225,1841,48239,4448,0,459,48255,10968,12,1386
48255,1786,48269,4494,0,433,48285,10969,4,1384
48285,1915,48299,4526,0,456,48315,10967,0,1415
48315,1884,48329,4555,0,458,48345,10981,5,1418
48345,2035,48359,4540,3,449,48375,10996,28,1425
48375,1843,48389,4511,8,444,48405,11014,13,1419
48405,1936,48419,4485,18,443,48435,11007,24,1397
48435,1991,48450,4477,2,425,48465,10987,13,1392
48465,1284,48480,4475,0,415,48496,10976,5,1376
48496,1739,48510,4519,0,432,48526,10972,2,1373
48526,2135,48540,4563,0,468,48556,10950,0,1394
48556,2176,48570,4560,14,450,48586,10965,0,1392
48586,2176,48600,4519,12,456,48616,10972,0,1406
48616,2181,48630,4477,0,446,48646,11007,9,1417
48646,2176,48661,4471,0,428,48676,10996,19,1402
48676,2117,48691,4453,6,431,48706,10990,16,1388
48706,2031,48721,4443,0,421,48736,10997,16,1378
48736,1950,48751,4464,0,458,48767,10975,1,1378
48767,1898,48781,4555,0,446,48797,10970,0,1359
48797,1891,48811,4498,25,447,48827,10966,0,1390
48827,1823,48841,4477,21,428,48857,10960,0,1367
48857,1891,48872,4461,1,430,48887,10975,0,1389
48887,1920,48902,4460,0,451,48917,10994,1,1380
48917,1948,48932,4456,4,452,48947,11019,13,1384
48947,1867,48962,4456,0,474,48977,11015,13,1368
48977,1931,48992,4492,12,459,49007,11000,12,1362
49007,1930,49022,4477,23,455,49038,11001,5,1363
49038,1950,49052,4467,23,445,49068,10990,3,1369
49068,1987,49083,4477,4,434,49098,10985,0,1383
49098,2131,49113,4460,0,429,49128,10976,0,1370
49128,2006,49143,4475,0,457,49158,10994,0,1390
49158,2099,49173,4471,3,452,49188,11017,0,1401
49188,2201,49203,4489,4,466,49218,11016,7,1401
49218,1319,49233,4470,19,440,49248,10995,16,1400
49248,1778,49263,4480,14,423,49278,11011,5,1390
49278,2157,49294,4459,0,423,49309,10983,0,1379
49309,2017,49324,4461,0,435,49339,10978,0,1385
49339,2128,49354,4462,0,450,49369,10968,0,1363
49369,2080,49384,4467,0,467,49399,10966,0,1378
49399,2139,49414,4507,21,465,49429,10980,0,1393
49429,2111,49444,4470,14,440,49459,10982,0,1411
49459,2038,49474,4456,0,436,49489,10994,6,1380
49489,1972,49505,4457,0,431,49519,10978,13,1389
49519,2017,49535,4472,0,446,49549,10975,24,1376
49549,1920,49565,4448,0,463,49579,10992,9,1370
49579,1978,49595,4476,8,478,49610,10979,0,1363
49610,1923,49625,4498,6,475,49640,10976,0,1355
49640,1990,49655,4500,15,455,49670,10960,0,1349
49670,1898,49686,4463,22,448,49700,11067,0,1377
49700,2002,49716,4470,0,432,49730,11048,0,1371
49730,1910,49746,4438,0,459,49760,11006,0,1391
49760,1974,49776,4451,0,468,49790,10986,2,1373
49790,1770,49806,4486,0,477,49820,10985,20,1365
49820,1866,49836,4495,16,473,49850,10979,0,1351
49850,1779,49866,4485,11,446,49881,10982,0,1350
49881,1787,49897,4461,0,450,49911,11033,13,1352
49911,1696,49927,4455,0,439,49941,11066,0,1369
49941,1947,49957,4449,0,453,49971,11066,0,1388
49971,1535,49987,4465,0,471,50001,11036,6,1384
50001,1600,50017,4486,0,483,50031,11007,5,1413
50031,1911,50047,4497,15,488,50061,10979,9,1401
50061,2174,50077,4480,17,461,50091,10971,26,1410
50091,2032,50108,4466,30,440,50121,10952,13,1399
50121,2135,50133,4475,19,441,50146,11059,11,1402
50146,2128,50158,4491,52,445,50172,11060,7,1380
50172,2128,50188,4455,0,452,50202,11040,0,1383
50202,2229,50218,4457,0,482,50232,11072,0,1392
50232,1985,50248,4496,15,464,50262,11047,0,1401
50262,1966,50278,4482,41,466,50292,11034,0,1419
50292,1798,50308,4449,12,439,50322,11003,5,1411
50322,1837,50334,4457,6,445,50347,10925,3,1404
50347,1806,50359,4471,40,444,50372,10930,30,1418
50372,1758,50384,4467,56,459,50397,10994,14,1411
50397,1872,50409,4458,19,465,50422,11045,16,1394
50422,1889,50434,4482,17,483,50448,11076,0,1388
50448,1847,50464,4469,4,468,50478,11021,0,1376
50478,1825,50494,4462,11,462,50508,11070,0,1393
50508,1773,50525,4460,2,454,50538,10960,0,1401
50538,1761,50550,4470,27,432,50563,10937,0,1421
50563,1706,50575,4479,30,454,50588,10907,0,1413
50588,1696,50600,4457,38,444,50613,10923,12,1415
50613,1821,50625,4476,7,467,50638,10936,19,1413
50638,1921,50650,4465,13,482,50663,10975,27,1406
50663,1892,50675,4470,6,461,50688,11005,20,1393
50688,1919,50700,4480,15,458,50714,11067,9,1387
50714,2032,50731,4465,21,450,50744,10964,0,1385
50744,2096,50756,4459,28,436,50769,10974,9,1392
50769,1271,50781,4465,60,437,50794,10968,0,1398
50794,1973,50806,4470,41,467,50819,10948,0,1395
50819,2182,50831,4460,29,456,50844,10952,0,1428
50844,2142,50856,4464,30,485,50869,10903,2,1439
50869,2091,50881,4468,17,464,50894,10912,0,1415
50894,2144,50906,4454,14,452,50919,10930,19,1414
50919,2219,50931,4458,0,475,50944,10977,9,1390
50944,2213,50957,4463,21,446,50969,10967,0,1394
50969,2143,50982,4442,7,449,50995,10981,0,1385
50995,2163,51007,4465,57,443,51020,10962,16,1384
51020,2161,51032,4449,34,465,51045,10957,0,1388
51045,2148,51057,4468,32,477,51070,10972,0,1387
51070,2117,51082,4471,27,462,51095,10971,0,1415
51095,2198,51107,4461,23,456,51120,10936,0,1407
51120,2225,51132,4468,0,435,51145,10927,0,1409
51145,2103,51158,4462,0,461,51170,10980,17,1403
51170,2032,51183,4461,3,445,51195,10988,5,1417
51195,2180,51208,4451,0,441,51220,10979,31,1384
51220,2171,51233,4463,0,456,51245,10973,12,1396
51245,2147,51258,4453,3,473,51271,10967,0,1390
51271,2125,51283,4458,15,470,51296,10972,0,1385
51296,2208,51308,4460,8,458,51321,10968,5,1390
51321,2293,51333,4455,0,448,51346,10968,0,1406
51346,2197,51358,4460,8,440,51371,10962,0,1402
51371,2128,51384,4463,16,448,51396,10998,18,1417
51396,2198,51409,4444,0,456,51421,10969,13,1412
51421,2282,51434,4461,0,444,51446,10994,18,1415
51446,2174,51459,4447,0,465,51471,10977,20,1411
51471,2171,51484,4448,0,467,51496,10982,12,1387
51496,2245,51509,4401,11,460,51521,10975,9,1404
51521,2575,51534,4407,17,447,51547,10974,0,1391
51547,1327,51559,4476,0,461,51572,10969,0,1394
51572,2108,51585,4462,0,435,51597,10992,51,1379
51597,2447,51610,4446,4,437,51622,10980,75,1391
51622,2471,51635,4455,0,443,51647,10981,32,1395
51647,2390,51660,4461,0,474,51672,10983,32,1415
51672,2405,51685,4441,0,466,51697,10983,22,1424
51697,2482,51710,4434,20,469,51722,10976,25,1405
51722,2467,51735,4388,18,468,51747,10995,0,1407
51747,2475,51760,4416,18,446,51772,10984,27,1389
51772,2394,51786,4431,15,446,51797,10980,0,1396
51797,2368,51811,4523,5,439,51822,10982,0,1393
51822,2320,51836,4556,0,450,51848,10978,2,1379
51848,2158,51861,4469,0,461,51873,10986,23,1384
51873,2166,51886,4459,0,469,51898,10976,64,1395
51898,2242,51911,4449,5,454,51923,10981,23,1394
51923,2158,51936,4392,12,461,51948,10970,22,1407
51948,2070,51961,4386,10,467,51973,10995,0,1425
51973,2096,51987,4428,15,448,52003,10988,5,1410
52003,1978,52017,4465,0,423,52033,11000,2,1414
52033,1982,52047,4492,0,446,52063,10993,10,1404
52063,1999,52077,4546,0,464,52088,10974,0,1390
52088,1881,52102,4514,0,485,52114,10985,8,1390
52114,1942,52127,4431,30,467,52139,10973,35,1381
52139,2073,52152,4391,27,467,52164,10983,41,1401
52164,2032,52177,4393,18,460,52189,10970,62,1393
52189,1922,52203,4442,20,451,52219,10956,0,1401
52219,1919,52233,4477,0,455,52249,10960,0,1424
52249,1882,52263,4514,0,461,52279,10987,22,1400
52279,1785,52293,4560,0,474,52309,10995,36,1397
52309,1491,52323,4569,15,486,52339,10996,26,1384
52339,2023,52353,4514,18,468,52364,10984,0,1393
52364,1961,52378,4494,8,449,52390,10987,8,1370
52390,1937,52404,4430,15,432,52420,10951,12,1375
52420,1972,52434,4468,9,432,52450,10956,14,1382
52450,1885,52464,4525,0,432,52480,10946,0,1383
52480,2002,52494,4558,0,457,52510,10966,13,1417
52510,1859,52524,4554,0,465,52540,10993,0,1414
52540,1891,52554,4539,4,459,52570,10989,26,1399
52570,1763,52584,4479,22,435,52600,11000,31,1410
52600,1811,52615,4472,13,425,52630,10980,12,1383
52630,1676,52645,4474,8,423,52661,10969,20,1397
52661,1747,52675,4498,0,424,52691,10971,13,1383
52691,1763,52705,4557,0,436,52721,10959,1,1372
52721,1787,52735,4564,0,465,52751,10945,0,1378
52751,1767,52765,4517,13,471,52781,10976,0,1397
52781,1764,52795,4481,14,429,52811,10958,13,1413
52811,1743,52826,4483,17,429,52841,10989,14,1404
52841,1760,52856,4474,0,421,52871,10975,14,1388
52871,1758,52886,4451,0,447,52901,10982,13,1393
52901,1808,52916,4474,0,452,52931,10950,26,1383
52931,1827,52946,4471,0,471,52962,10955,0,1367
52962,1815,52976,4527,15,460,52992,10944,4,1349
52992,1809,53006,4493,11,455,53022,10942,0,1364
53022,2018,53037,4464,0,424,53052,10955,0,1393
53052,645,53067,4467,25,437,53082,10975,0,1395
53082,1743,53097,4454,0,432,53112,10987,0,1381
53112,1943,53127,4479,0,451,53142,11024,22,1384
53142,1899,53157,4501,0,472,53172,11004,23,1368
53172,1868,53187,4480,7,460,53202,10981,20,1364
53202,1917,53217,4489,8,448,53233,10986,0,1373
53233,1916,53248,4459,8,432,53263,10967,0,1360
53263,1993,53278,4469,0,422,53293,10967,0,1388
53293,1968,53308,4455,0,437,53323,10973,0,1390
53323,1994,53338,4460,0,468,53353,10973,2,1403
53353,2007,53368,4501,4,463,53383,10989,0,1411
53383,1919,53398,4505,25,468,53413,11023,11,1404
53413,1935,53428,4510,26,440,53443,10988,13,1395
53443,1875,53459,4488,10,427,53473,10975,16,1392
53473,1968,53489,4472,0,421,53504,10989,0,1374
53504,1920,53519,4474,0,426,53534,10974,0,1365
53534,1919,53549,4465,0,447,53564,10969,0,1375
53564,1855,53579,4493,0,458,53594,10956,0,1385
53594,1920,53609,4488,16,454,53624,10958,6,1408
53624,1788,53639,4480,0,433,53654,10988,0,1400
53654,1925,53670,4479,1,440,53684,10967,0,1401
53684,1872,53700,4463,0,429,53714,10945,18,1390
53714,1894,53730,4466,0,432,53744,10974,6,1369
53744,1824,53760,4478,4,465,53775,10956,18,1367
53775,1927,53790,4500,0,464,53805,10974,0,1346
53805,1767,53820,4510,16,458,53835,10960,4,1379
53835,1520,53850,4502,12,453,53865,10956,0,1358
53865,1913,53881,4470,0,436,53895,11039,0,1370
53895,1946,53911,4465,6,439,53925,10996,6,1388
53925,1927,53941,4463,0,444,53955,10957,6,1362
53955,2006,53971,4480,0,460,53985,10966,14,1373
53985,2001,54001,4510,0,474,54015,10965,11,1354
54015,2146,54031,4498,4,476,54045,10963,14,1364
54045,2043,54061,4499,13,440,54076,10958,0,1365
54076,2039,54092,4479,0,440,54106,11051,7,1352
54106,1943,54122,4479,0,438,54136,11057,0,1372
54136,2086,54152,4453,0,459,54166,11042,0,1390
54166,2023,54182,4472,0,463,54196,11006,0,1405
54196,2103,54212,4504,4,473,54226,10992,16,1406
54226,2054,54242,4490,34,469,54256,10956,18,1407
54256,2128,54272,4496,23,456,54286,10969,5,1393
54286,1982,54298,4483,5,459,54311,11017,6,1392
54311,1999,54323,4483,53,440,54337,11044,0,1381
54337,2112,54353,4454,0,445,54367,11008,0,1375
54367,2025,54383,4477,13,462,54397,11050,4,1386
54397,2109,54413,4485,0,469,54427,11033,0,1392
54427,2129,54443,4499,20,477,54457,11028,0,1430
54457,2255,54473,4499,31,452,54487,10996,12,1427
54487,2129,54504,4485,4,434,54517,10921,32,1414
54517,2202,54529,4482,36,435,54542,10914,25,1401
54542,2137,54554,4469,65,439,54567,10969,22,1396
54567,2358,54579,4494,28,466,54592,11027,4,1391
54592,1168,54604,4488,8,472,54618,11047,7,1380
54618,2000,54634,4500,0,472,54648,11023,3,1376
54648,2223,54664,4481,9,448,54678,11050,0,1383
54678,2352,54694,4493,0,453,54708,11037,0,1393
54708,2208,54720,4469,11,442,54733,10942,0,1412
54733,2315,54745,4491,25,439,54758,10921,1,1407
54758,2304,54770,4493,57,456,54783,10899,0,1406
54783,2241,54795,4491,36,474,54808,10893,21,1413
54808,2255,54820,4483,0,489,54833,10936,21,1394
54833,2314,54845,4488,12,448,54858,10997,16,1392
54858,2319,54870,4500,7,485,54884,11056,12,1392
54884,2095,54900,4503,12,451,54914,11014,9,1371
54914,2170,54926,4474,6,437,54939,10952,5,1383
54939,2176,54951,4487,41,434,54964,10951,0,1384
54964,2079,54976,4486,68,445,54989,10964,0,1410
54989,2070,55001,4496,41,446,55014,10923,1,1417
55014,2176,55026,4488,10,459,55039,10889,1,1403
55039,2188,55051,4490,21,471,55064,10898,13,1403
55064,2096,55076,4484,17,464,55089,10924,7,1422
55089,2106,55101,4472,0,452,55114,10965,21,1394
55114,2131,55127,4474,6,440,55139,10980,0,1388
55139,2160,55152,4484,0,448,55165,10957,12,1390
55165,2077,55177,4480,57,427,55190,10954,0,1382
55190,2069,55202,4492,43,449,55215,10959,0,1381
55215,2128,55227,4468,11,468,55240,10958,0,1395
55240,2096,55252,4488,14,494,55265,10950,0,1392
55265,2060,55277,4479,35,464,55290,10935,2,1419
55290,1962,55302,4490,12,445,55315,10892,0,1405
