135,128,150,140410,0,7053,165,129381,0,5955
165,3797,180,140451,0,7119,195,129411,0,6075
195,144,210,140553,0,7157,225,129478,19,6013
225,3739,240,140674,11,7122,255,129496,27,6097
255,154,270,140798,17,7085,285,129491,30,6040
285,3723,301,140870,2,7034,316,129487,0,6097
316,778,331,140928,0,7011,346,129485,5,6039
346,3049,361,140976,0,7022,376,129464,0,6102
376,752,391,141031,0,7060,406,129401,0,6064
406,3024,421,141049,24,7022,436,129450,0,6153
436,769,451,141054,13,7018,466,129428,9,6072
466,3027,482,141100,17,6920,496,129396,16,6129
496,783,512,141149,0,6998,527,129397,12,6039
527,2576,542,141020,0,6987,557,129134,0,6026
557,1242,572,140592,8,7078,587,128714,0,5906
587,2544,602,140223,18,6969,617,128493,0,5933
617,1264,633,140084,22,7035,647,128509,0,5882
647,2531,663,140141,0,6923,677,128486,7,5930
677,1283,693,140298,0,7056,707,128529,25,5871
707,2570,723,140438,0,7052,737,128568,15,5899
737,1353,753,140559,18,7182,768,128571,0,5812
768,2018,783,140593,27,7095,798,128542,1,5842
798,1831,814,140525,9,7187,828,128551,0,5788
828,2001,844,140453,0,7055,858,128484,0,5892
858,1850,874,140427,0,7198,888,128440,1,5902
888,2023,904,140489,3,7151,918,128421,16,5934
918,1921,934,140633,11,7283,948,128456,19,5947
948,2017,964,140759,15,7172,978,128503,0,5981
978,1905,995,140845,10,7267,1009,128519,3,5972
1009,1431,1025,140900,9,7136,1039,128578,0,6011
1039,2457,1055,140951,1,7318,1069,128569,0,6042
1069,1446,1085,141018,10,7245,1099,128564,0,6114
1099,2534,1115,141055,19,7372,1129,128512,4,6115
1129,1429,1145,141065,32,7263,1159,128475,6,6137
1159,2507,1171,141078,24,7343,1184,128474,14,6077
1184,3792,1196,141144,53,7343,1209,128531,6,6133
1209,1405,1221,141189,48,7338,1235,128623,0,6141
1235,592,1251,141172,3,7419,1265,128431,0,6066
1265,3385,1281,140768,17,7352,1295,128071,0,6081
1295,609,1311,140291,16,7337,1325,127696,7,6007
1325,3340,1342,140017,13,7203,1355,127445,3,6049
1355,576,1367,140012,21,7131,1380,127537,1,6050
1380,3119,1392,140085,21,7223,1405,127605,30,5995
1405,3322,1417,140179,9,7274,1430,127720,7,6054
1430,849,1442,140279,4,7219,1456,127802,6,6035
1456,1051,1472,140355,0,7327,1486,127816,0,5981
1486,2873,1502,140365,0,7196,1516,127873,0,6047
1516,1022,1528,140343,14,7193,1541,127771,0,6055
1541,3654,1553,140289,50,7255,1566,127741,0,6037
1566,2845,1578,140280,12,7270,1591,127714,0,6067
1591,429,1603,140290,1,7219,1616,127761,19,6094
1616,1103,1628,140330,30,7295,1641,127827,18,6056
1641,3834,1653,140416,17,7311,1666,127937,19,6037
1666,2873,1678,140508,0,7305,1692,128072,13,6072
1692,167,1704,140587,22,7163,1717,128014,0,6079
1717,1582,1729,140672,46,7296,1742,128048,0,6062
1742,4095,1754,140726,39,7333,1767,128081,0,6076
1767,2325,1779,140776,1,7381,1792,128082,0,6138
1792,210,1804,140817,24,7273,1817,128020,10,6128
1817,1677,1829,140838,20,7385,1842,128065,10,6111
1842,4095,1854,140839,0,7377,1867,128090,28,6109
1867,2304,1880,140857,0,7332,1892,128167,4,6143
1892,149,1905,140902,0,7240,1918,128167,6,6140
1918,2180,1930,140974,32,7388,1943,128193,0,6095
1943,4095,1955,141040,12,7424,1968,128232,0,6121
1968,1786,1980,141083,10,7411,1993,128135,5,6137
1993,240,2005,140824,16,7295,2018,127816,0,6120
2018,2262,2030,140391,12,7339,2043,127398,4,6046
2043,4081,2056,140015,0,7254,2068,127254,6,6047
2068,1712,2081,139819,0,7184,2093,127194,1,6033
2093,158,2106,139838,0,7157,2118,127263,0,6022
2118,2224,2131,139890,2,7265,2144,127299,10,5951
2144,3737,2156,140017,10,7268,2169,127324,0,5981
2169,1202,2181,140075,18,7198,2194,127369,0,6016
2194,457,2206,140126,0,7181,2219,127380,0,6023
2219,2873,2232,140153,6,7224,2244,127477,26,5979
2244,3591,2257,140133,0,7215,2269,127480,34,6062
2269,1087,2282,140131,0,7186,2294,127484,19,6031
2294,412,2307,140076,0,7226,2319,127503,16,6043
2319,2842,2332,140052,12,7277,2344,127527,3,5976
2344,3583,2357,140040,32,7271,2370,127543,16,6021
2370,682,2383,140179,0,7156,2395,127614,24,6012
2395,830,2408,140260,0,7183,2420,127680,42,6014
2420,3422,2433,140350,1,7242,2445,127727,23,5979
2445,3063,2458,140423,0,7300,2470,127791,19,6071
2470,581,2483,140487,0,7216,2495,127823,16,6085
2495,819,2508,140505,23,7329,2520,127874,25,6069
2520,3407,2533,140515,27,7332,2545,127899,9,6062
2545,3051,2559,140555,8,7317,2570,127946,0,6068
2570,562,2584,140680,0,7173,2596,127980,0,6077
2596,1309,2609,140679,0,7296,2621,128009,21,6053
2621,3948,2634,140719,0,7348,2646,128045,34,6027
2646,2555,2659,140759,0,7384,2671,128084,39,6067
2671,238,2684,140770,10,7274,2696,128101,26,6105
2696,1325,2709,140803,27,7393,2721,128134,10,6103
2721,3937,2735,140860,10,7369,2751,128010,19,6097
2751,234,2765,140526,0,7187,2781,127608,11,6001
2781,3953,2795,140086,0,7255,2806,127273,0,5960
2806,2483,2820,139861,0,7240,2832,127176,0,5957
2832,112,2845,139709,0,7156,2857,127213,40,5938
2857,1893,2870,139678,16,7249,2882,127287,35,5915
2882,4095,2895,139826,21,7219,2907,127328,42,5927
2907,1980,2921,139951,0,7142,2937,127365,0,5989
2937,1901,2951,140010,0,7179,2967,127443,0,5977
2967,1959,2981,140138,0,7139,2997,127485,27,5998
2997,1920,3011,140154,3,7222,3027,127489,21,5963
3027,1927,3041,140090,26,7143,3052,127456,0,5943
3052,99,3066,140040,3,7088,3078,127470,29,5933
3078,2512,3092,139996,12,7099,3108,127504,6,5937
3108,1404,3122,140119,0,6937,3138,127562,0,5968
3138,2523,3152,140242,0,7022,3168,127674,4,5976
3168,1344,3182,140418,0,6905,3198,127751,0,6008
3198,2528,3212,140475,12,7011,3228,127818,11,6006
3228,1328,3242,140514,18,6804,3258,127864,20,5993
3258,2544,3273,140585,2,6880,3289,127884,22,5986
3289,832,3303,140613,0,6671,3319,127933,0,5964
3319,3135,3333,140705,0,6888,3349,127982,5,5973
3349,797,3363,140764,5,6768,3379,128042,0,5991
3379,3136,3393,140777,18,6960,3409,128085,0,6001
3409,784,3423,140794,11,6810,3439,128184,21,5996
3439,3137,3454,140889,0,6957,3469,128214,24,6000
3469,753,3484,140977,0,6842,3499,128225,20,5954
3499,3146,3514,140810,0,7096,3530,127902,0,5882
3530,387,3544,140355,0,6956,3560,127500,0,5781
3560,3681,3574,139946,23,7088,3590,127310,0,5785
3590,368,3604,139830,12,6940,3620,127327,0,5772
3620,3659,3635,139923,4,7057,3650,127437,6,5817
3650,339,3665,140047,0,6984,3680,127520,0,5775
3680,3682,3695,140173,0,7187,3710,127583,0,5814
3710,312,3725,140308,12,7103,3740,127661,10,5777
3740,3683,3755,140336,22,7218,3771,127668,1,5807
3771,121,3786,140285,10,7089,3801,127667,0,5776
3801,4064,3816,140233,0,7136,3831,127692,0,5845
3831,109,3846,140209,0,7084,3861,127737,0,5841
3861,4025,3876,140302,0,7204,3891,127832,3,5928
3891,98,3906,140444,19,7138,3921,127936,17,5905
3921,4033,3936,140561,23,7166,3951,128012,22,5961
3951,115,3967,140647,0,7062,3982,128077,6,5912
3982,3970,3997,140723,0,7066,4012,128106,0,5982
4012,142,4027,140793,0,7054,4042,128143,0,5908
4042,3927,4057,140829,0,7120,4072,128149,0,5978
4072,129,4087,140871,19,7095,4102,128178,0,5957
4102,3918,4117,140865,8,7101,4132,128171,14,6007
4132,162,4148,140884,3,7041,4162,128206,26,5931
4162,3904,4178,140896,0,7060,4192,128177,9,5990
4192,187,4208,140968,0,7128,4223,128138,10,5878
4223,3487,4238,140937,0,7196,4253,127850,0,5893
4253,416,4268,140525,4,7200,4283,127326,0,5734
4283,3446,4298,140077,15,7147,4313,126953,0,5827
4313,405,4329,139869,2,7075,4343,126917,0,5723
4343,3441,4359,139886,0,7106,4373,126983,10,5804
4373,465,4389,140058,0,7197,4403,127117,23,5688
4403,3511,4419,140238,0,7211,4433,127228,11,5766
4433,497,4449,140373,30,7268,4464,127342,10,5652
4464,2992,4479,140409,22,7208,4494,127383,0,5777
4494,853,4510,140362,0,7228,4524,127462,0,5710
4524,2971,4540,140276,0,7194,4554,127404,0,5847
4554,884,4570,140245,0,7310,4584,127386,18,5799
4584,3020,4600,140323,5,7280,4614,127437,28,5902
4614,925,4630,140419,28,7342,4644,127493,3,5875
4644,2975,4661,140511,25,7256,4675,127546,7,5941
4675,1377,4691,140627,15,7310,4705,127660,11,5919
4705,2482,4721,140750,0,7266,4735,127743,0,6009
4735,1416,4751,140798,9,7425,4765,127778,0,6018
4765,2494,4781,140882,31,7345,4795,127745,0,6087
4795,1443,4811,140900,23,7430,4825,127746,9,6075
4825,2445,4842,140887,12,7296,4855,127705,15,6105
4855,1423,4867,140921,55,7392,4880,127805,14,6072
4880,4016,4892,140968,48,7414,4906,127910,16,6084
4906,1942,4922,141003,0,7359,4936,127889,0,6095
4936,2017,4952,141110,10,7505,4966,127956,0,6096
4966,1942,4982,141029,0,7364,4996,127743,0,6112
4996,2011,5013,140553,0,7413,5026,127170,0,6049
5026,1894,5038,140158,32,7343,5051,126923,8,6039
5051,142,5063,139920,40,7216,5076,126833,8,6031
5076,2064,5088,139872,0,7370,5101,126949,5,5977
5101,4095,5113,139931,0,7384,5127,127078,9,6006
5127,1345,5143,140104,8,7272,5157,127123,1,6005
5157,2655,5173,140176,0,7360,5187,127211,0,6017
5187,1278,5199,140252,38,7300,5212,127172,0,6053
5212,309,5224,140275,42,7238,5237,127178,0,6057
5237,2658,5249,140276,24,7386,5262,127125,6,6038
5262,3775,5274,140224,25,7407,5287,127148,13,6066
5287,1328,5299,140201,3,7382,5312,127151,13,6056
5312,403,5324,140205,9,7309,5337,127251,14,6065
5337,2751,5350,140256,0,7399,5363,127253,0,5989
5363,3251,5375,140327,19,7346,5388,127310,2,6033
5388,769,5400,140416,72,7312,5413,127409,0,6073
5413,694,5425,140532,36,7355,5438,127463,0,6092
5438,3278,5450,140628,10,7437,5463,127487,0,6069
5463,3287,5475,140678,6,7460,5488,127472,0,6135
5488,794,5500,140722,18,7377,5513,127505,12,6158
5513,749,5526,140755,15,7397,5538,127614,10,6126
5538,3251,5551,140787,5,7419,5563,127623,11,6080
5563,3229,5576,140781,0,7438,5589,127662,12,6123
5589,384,5601,140827,25,7374,5614,127689,0,6106
5614,1179,5626,140878,21,7466,5639,127735,2,6109
5639,3883,5651,140900,15,7513,5664,127775,0,6108
5664,2791,5676,140996,26,7501,5689,127775,0,6179
5689,394,5702,141025,2,7358,5714,127774,17,6180
5714,1194,5727,140751,0,7408,5739,127468,19,6124
5739,3806,5752,140317,0,7415,5764,127102,15,6054
5764,2691,5777,140004,0,7431,5789,126912,5,6052
5789,334,5802,139872,0,7313,5815,126896,7,6045
5815,1787,5827,139902,29,7416,5840,126930,0,6001
5840,4095,5852,139985,10,7407,5865,127014,7,6022
5865,2273,5878,140119,3,7375,5890,127074,35,6049
5890,170,5903,140175,0,7247,5915,127123,29,6063
5915,1733,5928,140241,0,7373,5940,127177,13,6070
5940,4095,5953,140295,0,7419,5965,127204,33,6079
5965,2160,5978,140227,0,7406,5990,127222,20,6084
5990,133,6003,140157,13,7351,6015,127192,11,6082
6015,1725,6028,140122,17,7422,6041,127176,11,6029
6041,4095,6054,140231,0,7386,6066,127226,25,6055
6066,1649,6079,140252,8,7347,6091,127244,19,6070
6091,192,6104,140304,1,7323,6116,127310,36,6076
6116,2307,6129,140406,0,7454,6141,127364,9,6063
6141,3954,6154,140499,0,7478,6166,127427,19,6130
6166,1611,6179,140543,22,7413,6191,127459,18,6122
6191,197,6204,140619,7,7413,6216,127480,10,6144
6216,2291,6230,140723,15,7452,6241,127510,0,6087
6241,3922,6255,140861,0,7436,6266,127534,0,6127
6266,1552,6280,140889,0,7365,6292,127548,28,6108
6292,464,6305,140800,0,7455,6317,127563,45,6133
6317,2912,6330,140796,8,7532,6342,127570,43,6090
6342,3491,6355,140768,23,7516,6367,127597,11,6176
6367,999,6380,140841,26,7408,6392,127623,14,6191
6392,463,6406,140993,0,7444,6422,127678,18,6134
6422,3454,6436,141027,2,7482,6452,127548,20,6142
6452,462,6466,140746,0,7485,6477,127241,0,6110
6477,2929,6491,140281,0,7488,6503,126911,0,6002
6503,2994,6516,139933,25,7458,6528,126743,38,6012
6528,540,6541,139834,14,7298,6553,126742,52,6012
6553,889,6567,139887,8,7362,6583,126843,0,6000
6583,2960,6597,140072,4,7344,6613,126943,0,6078
6613,879,6627,140259,0,7344,6643,127023,14,6034
6643,2944,6657,140382,0,7353,6673,127100,32,6099
6673,886,6687,140400,6,7334,6698,127098,0,6042
6698,3487,6712,140311,14,7283,6723,127082,0,5997
6723,2913,6738,140262,6,7183,6754,127057,9,6020
6754,1397,6768,140203,0,7098,6784,127057,6,5994
6784,2459,6798,140283,0,7064,6814,127125,0,6039
6814,1392,6828,140422,0,7120,6844,127214,2,6048
6844,2432,6858,140483,9,7057,6874,127332,6,6066
6874,1393,6888,140562,7,7073,6904,127408,20,6051
6904,2416,6919,140670,3,6952,6934,127478,19,6061
6934,1399,6949,140716,0,7005,6965,127483,10,6015
6965,1932,6979,140825,0,6954,6995,127524,6,6028
6995,1946,7009,140862,0,7145,7025,127568,8,5989
7025,1925,7039,140854,14,7083,7055,127610,0,6047
7055,1936,7069,140847,19,7207,7085,127645,0,6025
7085,1875,7100,140914,7,7066,7115,127706,6,6049
7115,1942,7130,140985,0,7218,7145,127750,27,6004
7145,1867,7160,141043,0,7186,7175,127725,20,5993
7175,1954,7190,140846,12,7361,7206,127397,6,5905
7206,1319,7220,140356,22,7232,7236,127019,0,5870
7236,2574,7250,140015,11,7312,7266,126863,0,5849
7266,1298,7281,139910,0,7133,7296,126920,3,5881
7296,2549,7311,140010,0,7301,7326,127051,0,5908
7326,1271,7341,140166,0,7236,7356,127116,28,5922
7356,2559,7371,140298,6,7398,7386,127190,20,5917
7386,1261,7401,140389,16,7271,7417,127236,10,5927
7417,3143,7432,140385,9,7344,7447,127257,3,5916
7447,768,7462,140331,0,7142,7477,127242,0,5961
7477,3140,7492,140277,0,7288,7507,127275,0,5999
7507,747,7522,140291,0,7187,7537,127332,0,6026
7537,3139,7552,140419,12,7311,7567,127425,14,6024
7567,749,7582,140512,22,7154,7597,127498,25,6035
7597,3166,7613,140605,7,7219,7627,127588,10,6032
7627,737,7643,140692,5,7035,7658,127617,3,5995
7658,3642,7673,140765,0,7210,7688,127668,0,6010
7688,349,7703,140792,0,7116,7718,127679,0,6001
7718,3649,7733,140834,17,7274,7748,127703,5,6049
7748,331,7763,140874,2,7147,7778,127739,0,6018
7778,3679,7794,140868,14,7222,7808,127746,24,6034
7808,331,7824,140916,0,7143,7838,127821,9,5975
7838,3745,7854,141007,0,7337,7869,127872,11,5990
7869,128,7884,140988,0,7299,7899,127751,11,5869
7899,3990,7914,140568,30,7387,7929,127379,0,5870
7929,118,7944,140180,13,7301,7959,127083,0,5787
7959,4018,7975,139988,0,7300,7989,127105,0,5857
7989,134,8005,140031,0,7300,8019,127148,13,5760
8019,4095,8035,140177,0,7414,8049,127221,19,5818
8049,181,8065,140320,16,7443,8079,127274,6,5744
8079,4095,8095,140420,41,7466,8110,127342,0,5810
8110,138,8126,140442,31,7438,8140,127411,0,5727
8140,3986,8156,140394,0,7429,8170,127411,0,5838
8170,148,8186,140302,0,7437,8200,127409,0,5814
8200,4010,8216,140290,4,7523,8230,127362,0,5932
8230,206,8246,140377,6,7526,8260,127379,17,5884
8260,4003,8276,140468,30,7534,8290,127463,30,5967
8290,197,8307,140551,33,7525,8321,127515,21,5916
8321,3553,8337,140656,16,7495,8351,127613,0,5976
8351,409,8367,140715,0,7557,8381,127671,0,5957
8381,3579,8397,140761,15,7587,8411,127689,0,6033
8411,432,8427,140824,26,7603,8441,127674,0,6010
8441,3583,8457,140811,21,7573,8471,127631,18,6069
8471,416,8488,140821,2,7565,8501,127536,20,6024
8501,3574,8513,140868,35,7572,8526,127632,8,6059
8526,1128,8538,140930,37,7553,8552,127715,12,6059
8552,807,8568,140968,0,7651,8582,127607,7,5962
8582,3132,8598,140644,0,7590,8612,127275,9,5972
8612,819,8628,140188,2,7593,8642,126905,0,5888
8642,3104,8659,139943,0,7441,8672,126618,0,5945
8672,802,8684,139954,12,7442,8697,126620,0,5931
8697,3390,8709,140011,29,7542,8722,126675,23,5899
8722,3121,8734,140095,17,7567,8747,126747,34,5918
8747,674,8759,140166,1,7494,8772,126870,4,5926
8772,880,8784,140264,7,7570,8798,126989,0,5886
8798,3899,8814,140313,4,7570,8828,127015,0,5901
8828,281,8840,140276,27,7427,8853,126954,0,5893
8853,1265,8865,140253,53,7504,8878,126935,0,5900
8878,3886,8890,140217,36,7563,8903,126931,0,5900
8903,2629,8915,140219,20,7601,8928,126896,0,5915
8928,335,8940,140234,19,7503,8953,126943,19,5926
8953,1349,8965,140332,19,7591,8978,127052,21,5910
8978,3988,8990,140417,5,7584,9003,127194,6,5898
9003,2627,9016,140468,7,7568,9029,127199,0,5934
9029,134,9041,140553,50,7460,9054,127235,0,5909
9054,1825,9066,140606,29,7613,9079,127270,0,5897
9079,4095,9091,140637,23,7641,9104,127292,0,5918
9104,2150,9116,140657,21,7653,9129,127253,0,5953
9129,211,9141,140679,15,7540,9154,127205,0,5976
9154,1872,9166,140703,1,7630,9179,127232,11,5936
9179,4095,9192,140726,0,7598,9204,127336,12,5953
9204,2078,9217,140753,0,7605,9229,127359,0,5952
9229,141,9242,140830,0,7533,9255,127365,2,5943
9255,2423,9267,140896,27,7687,9280,127338,0,5884
9280,4079,9292,140726,18,7687,9305,127116,0,5896
9305,1629,9317,140333,24,7597,9330,126791,0,5866
9330,274,9343,139971,0,7483,9355,126536,20,5862
9355,2407,9368,139768,0,7511,9380,126426,28,5824
9380,3945,9393,139704,0,7472,9405,126431,8,5846
9405,1503,9418,139764,0,7469,9430,126477,11,5832
9430,211,9443,139820,0,7488,9455,126481,3,5830
9455,2391,9468,139817,16,7551,9481,126508,4,5781
9481,3568,9493,139896,13,7540,9506,126530,0,5814
9506,1036,9519,139916,14,7442,9531,126604,49,5834
9531,532,9544,139945,2,7418,9556,126642,19,5835
9556,2966,9569,139912,0,7489,9581,126648,19,5827
9581,3445,9594,139909,0,7519,9606,126645,5,5858
9606,977,9619,139887,4,7458,9631,126689,7,5859
9631,494,9644,139868,18,7507,9656,126723,20,5862
9656,2961,9669,139892,16,7532,9681,126760,9,5803
9681,3417,9695,139968,3,7511,9707,126838,8,5850
9707,560,9720,140128,0,7379,9732,126915,24,5847
9732,919,9745,140177,0,7488,9757,126945,48,5858
9757,3513,9770,140256,0,7563,9782,127010,22,5811
9782,2978,9795,140298,0,7589,9807,127028,30,5899
9807,525,9820,140268,21,7469,9832,127063,17,5907
9832,909,9845,140256,9,7563,9857,127083,17,5891
9857,3491,9871,140342,0,7535,9887,127096,28,5895
9887,502,9901,140400,0,7427,9912,127125,0,5909
9912,905,9926,140525,0,7562,9938,127148,0,5867
9938,3970,9951,140474,0,7604,9963,127176,28,5852
9963,2485,9976,140535,0,7627,9988,127203,44,5902
9988,237,10001,140515,27,7502,10013,127232,25,5925
10013,1391,10026,140479,13,7592,10038,127113,17,5886
10038,3951,10052,140194,0,7521,10068,126759,0,5859
10068,199,10082,139718,0,7371,10098,126476,17,5796
10098,3925,10112,139527,0,7453,10128,126410,13,5812
10128,213,10142,139476,1,7333,10153,126450,0,5796
10153,1392,10167,139449,21,7417,10179,126501,14,5732
10179,4095,10192,139402,20,7387,10204,126518,33,5754
10204,1947,10218,139431,7,7262,10234,126549,0,5799
10234,1929,10248,139490,3,7290,10264,126673,6,5799
10264,1941,10278,139574,0,7208,10294,126768,0,5841
10294,1936,10308,139629,0,7267,10324,126829,7,5829
10324,1927,10338,139553,9,7126,10354,126830,31,5834
10354,1904,10368,139532,7,7129,10379,126865,0,5765
10379,4025,10394,139548,0,7047,10410,126909,0,5803
10410,270,10424,139587,4,6933,10440,126955,4,5749
10440,3826,10454,139762,0,7018,10470,127024,0,5827
10470,266,10484,139888,0,6979,10500,127091,0,5789
10500,3779,10514,139910,33,7035,10530,127152,0,5864
10530,239,10544,139926,19,6960,10560,127180,15,5806
10560,3753,10575,139960,0,6964,10590,127230,10,5857
10590,231,10605,139968,0,6960,10621,127265,17,5769
10621,3352,10635,140101,0,7094,10651,127330,3,5819
10651,575,10665,140159,0,7123,10681,127378,0,5733
10681,3308,10695,140170,15,7201,10711,127445,0,5826
10711,570,10725,140201,26,7198,10741,127475,13,5771
10741,3266,10756,140278,4,7179,10771,127541,10,5845
10771,562,10786,140332,0,7235,10801,127569,14,5735
10801,3248,10816,140318,0,7303,10831,127447,10,5773
10831,560,10846,139878,8,7330,10862,127043,8,5626
10862,2841,10876,139401,19,7255,10892,126782,0,5661
10892,977,10907,139151,19,7191,10922,126733,0,5595
10922,2822,10937,139094,0,7102,10952,126800,2,5720
10952,976,10967,139151,0,7160,10982,126874,0,5702
10982,2808,10997,139216,0,7150,11012,126913,13,5774
11012,959,11027,139227,8,7190,11042,126952,17,5724
11042,2800,11057,139276,25,7113,11073,127035,18,5777
11073,1483,11088,139277,18,7105,11103,127105,5,5742
11103,2351,11118,139281,0,6995,11133,127135,0,5822
11133,1478,11148,139273,0,7066,11163,127209,0,5824
11163,2323,11178,139326,0,6991,11193,127277,0,5900
11193,1470,11208,139428,19,7061,11223,127398,24,5865
11223,2306,11238,139499,16,6916,11253,127471,25,5914
11253,1488,11269,139574,0,6962,11283,127557,21,5865
11283,2341,11299,139648,1,6846,11314,127609,0,5884
11314,2001,11329,139696,0,7007,11344,127657,0,5848
11344,1826,11359,139753,0,6927,11374,127698,0,5879
11374,2020,11389,139794,23,7086,11404,127725,0,5881
11404,1797,11419,139822,12,6937,11434,127811,0,5904
11434,2012,11450,139841,4,7068,11464,127864,21,5898
11464,1807,11480,139900,0,6948,11494,127969,29,5897
11494,2064,11510,139958,8,7207,11524,128051,12,5861
11524,1862,11540,140056,0,7107,11555,128106,0,5833
11555,2592,11570,140114,11,7280,11585,128159,0,5822
11585,1285,11601,140176,31,7106,11615,128306,0,5854
11615,2594,11631,140258,5,7259,11645,128297,0,5884
11645,1271,11661,140135,0,7148,11675,128127,8,5861
11675,2647,11691,139638,0,7305,11705,127778,5,5824
11705,1298,11721,139232,11,7147,11735,127575,5,5797
11735,2704,11751,139052,28,7229,11766,127544,4,5790
11766,758,11782,139073,5,7068,11796,127682,0,5786
11796,3152,11812,139171,10,7173,11826,127772,0,5842
11826,768,11842,139246,0,7112,11856,127802,0,5905
11856,3200,11872,139328,1,7266,11886,127829,12,5956
11886,810,11902,139387,32,7183,11916,127869,1,5987
11916,3205,11932,139358,28,7257,11946,127965,29,6000
11946,767,11958,139292,14,7164,11971,127978,32,6004
11971,657,11983,139285,48,7137,11997,128056,2,5994
11997,3677,12013,139295,0,7256,12027,128066,0,5999
12027,405,12043,139386,0,7237,12057,128153,0,6010
12057,3756,12073,139511,20,7320,12087,128242,0,6065
12087,419,12103,139608,16,7268,12117,128254,0,6079
12117,3697,12129,139670,0,7267,12142,128172,0,6055
12142,2753,12154,139720,28,7286,12167,128220,13,6093
12167,390,12179,139741,21,7198,12192,128295,20,6093
12192,1109,12204,139785,0,7327,12218,128372,8,6069
12218,4095,12234,139824,20,7368,12248,128339,0,6064
12248,203,12264,139842,4,7358,12278,128423,0,6056
12278,4069,12295,139887,0,7366,12308,128338,0,6107
12308,161,12320,139926,15,7211,12333,128319,0,6114
12333,1602,12345,139966,40,7337,12358,128294,0,6105
12358,4087,12370,140040,14,7409,12383,128324,8,6114
12383,2325,12395,140103,11,7431,12408,128347,24,6118
12408,235,12420,140200,9,7339,12433,128418,7,6120
12433,1703,12445,140221,8,7443,12459,128439,3,6084
12459,4012,12476,139873,1,7372,12489,128115,2,6050
12489,183,12501,139460,44,7203,12514,127829,0,6040
12514,2158,12526,139149,47,7288,12539,127637,0,5999
12539,4059,12551,139031,20,7292,12564,127582,0,6030
12564,1808,12576,139054,15,7278,12589,127558,0,6039
12589,240,12601,139159,0,7206,12614,127601,19,6048
12614,2211,12626,139260,8,7272,12639,127672,19,5992
12639,4084,12652,139312,11,7254,12664,127741,10,6031
12664,1793,12677,139379,0,7233,12690,127756,4,6041
12690,356,12702,139432,48,7180,12715,127795,0,6026
12715,2767,12727,139410,20,7308,12740,127776,0,5993
12740,3741,12752,139354,19,7319,12765,127751,0,6042
12765,1259,12777,139344,11,7255,12790,127699,0,6067
12790,432,12802,139357,0,7216,12815,127670,0,6075
12815,2769,12828,139406,0,7275,12840,127787,24,6033
12840,3690,12853,139488,0,7267,12865,127828,12,6065
12865,1194,12878,139581,0,7248,12890,127882,0,6076
12890,379,12903,139680,1,7294,12916,127901,0,6049
12916,3339,12928,139785,20,7362,12941,127930,0,6004
12941,3254,12953,139846,8,7374,12966,127938,0,6068
12966,769,12978,139904,6,7275,12991,127947,0,6089
12991,771,13004,139933,2,7290,13016,127978,11,6110
13016,3284,13029,139940,0,7335,13041,128010,16,6060
13041,3169,13054,139980,0,7378,13066,128008,22,6112
13066,689,13079,140000,0,7302,13091,128035,9,6109
13091,720,13104,140012,8,7400,13116,128055,0,6102
13116,3291,13129,140002,27,7417,13142,128056,5,6055
13142,2765,13154,140155,0,7410,13167,128094,8,6102
13167,373,13180,140195,3,7266,13192,128140,51,6114
13192,1193,13205,140240,0,7379,13217,128174,22,6103
13217,3824,13230,140329,0,7432,13242,128191,13,6108
13242,2683,13255,140324,0,7469,13267,128134,20,6145
13267,322,13280,139987,0,7334,13292,127917,11,6127
13292,1168,13305,139475,30,7390,13317,127681,22,6055
13317,3753,13330,139132,19,7302,13342,127517,0,6016
13342,2661,13356,139030,1,7225,13368,127495,0,6022
13368,160,13381,139017,0,7101,13393,127539,36,6011
13393,1728,13406,139105,0,7245,13418,127591,35,6004
13418,4091,13431,139174,0,7289,13443,127622,30,6007
13443,2188,13456,139213,10,7260,13468,127668,31,6061
13468,137,13481,139194,25,7185,13493,127689,9,6082
13493,1698,13507,139236,15,7248,13523,127761,22,6068
13523,2167,13537,139302,6,7172,13553,127795,12,6072
13553,1725,13567,139345,0,7219,13578,127766,0,6021
13578,4057,13592,139375,0,7271,13604,127779,19,6040
13604,1663,13617,139294,0,7231,13629,127856,29,6053
13629,179,13642,139275,13,7221,13654,127886,64,6068
13654,2254,13667,139401,4,7282,13679,127942,19,6049
13679,3967,13693,139514,14,7254,13709,128007,0,6111
13709,180,13723,139651,0,7205,13739,128059,14,6089
13739,3956,13753,139798,0,7288,13769,128111,26,6130
13769,161,13783,139885,0,7264,13794,128125,0,6105
13794,2231,13808,139851,20,7313,13820,128136,0,6065
13820,3555,13833,139792,21,7277,13845,128151,13,6087
13845,1077,13859,139833,11,7122,13875,128170,10,6106
13875,2867,13889,139936,9,7145,13905,128217,0,6107
13905,1059,13919,140042,0,7012,13935,128240,0,6130
13935,2847,13949,140125,0,7147,13965,128306,0,6152
13965,1065,13979,140188,7,6969,13995,128393,17,6160
13995,2858,14009,140224,3,7068,14020,128430,0,6097
14020,3447,14035,140299,0,7014,14051,128496,25,6148
14051,832,14065,140266,0,6926,14081,128380,0,6029
14081,3043,14095,139819,0,6906,14111,128007,0,6072
14111,810,14125,139352,0,6899,14141,127750,0,5964
14141,3018,14155,139053,9,6859,14171,127671,0,6040
14171,813,14185,138972,3,6825,14201,127727,17,5965
14201,3004,14216,139099,0,6795,14231,127772,23,6020
14231,802,14246,139208,3,6843,14261,127805,16,5945
14261,2992,14276,139262,0,6905,14292,127830,10,5957
14292,1296,14306,139408,0,6991,14322,127889,0,5895
14322,2574,14336,139387,28,6993,14352,127890,0,5944
14352,1282,14366,139337,19,7027,14382,127901,0,5900
14382,2536,14397,139320,8,6951,14412,127924,0,5977
14412,1266,14427,139312,0,7035,14442,127992,2,5923
14442,2522,14457,139407,2,7046,14472,128060,25,5967
14472,1264,14487,139534,12,7153,14502,128110,10,5942
14502,2517,14517,139674,25,7108,14533,128160,12,5974
14533,1804,14547,139747,8,7169,14563,128207,0,5970
14563,2032,14578,139838,0,7036,14593,128240,0,6045
14593,1799,14608,139877,0,7146,14623,128290,0,6066
14623,2015,14638,139937,0,7093,14653,128355,3,6106
14653,1808,14668,139990,0,7178,14683,128361,21,6115
14683,2014,14698,140023,24,7050,14713,128411,21,6156
14713,1808,14729,140089,19,7109,14744,128440,15,6129
14744,1496,14759,140126,0,6904,14774,128466,0,6140
14774,2373,14789,140209,0,7060,14804,128525,0,6153
14804,1472,14819,140302,0,6973,14834,128559,0,6194
14834,2374,14849,140438,6,7103,14864,128603,0,6178
14864,1443,14879,140282,10,6927,14894,128472,10,6178
14894,2385,14910,139691,0,6986,14924,128159,27,6115
14924,1456,14940,139263,0,6759,14954,127983,7,6074
14954,2402,14970,139096,0,6965,14985,127998,3,6033
14985,943,15000,139203,7,6889,15015,128066,0,6027
15015,2939,15030,139374,41,7074,15045,128143,0,6027
15045,929,15060,139489,11,6940,15075,128195,0,6043
15075,2962,15091,139561,6,7053,15105,128321,0,6057
15105,934,15121,139602,0,6953,15135,128355,17,6020
15135,2982,15151,139582,0,7161,15165,128392,39,6009
15165,979,15181,139562,1,7095,15195,128453,1,6003
15195,3034,15211,139560,16,7214,15226,128486,0,6000
15226,496,15241,139597,6,7103,15256,128591,0,5986
15256,3469,15272,139685,12,7194,15286,128807,0,6049
15286,494,15302,139797,0,7133,15316,128878,0,6091
15316,3484,15332,139943,7,7279,15346,128938,16,6148
15346,525,15362,140058,15,7254,15376,128988,22,6157
15376,3542,15392,140115,30,7330,15406,129063,12,6192
15406,516,15423,140140,17,7261,15437,129112,17,6201
15437,3926,15453,140151,5,7298,15467,129226,19,6252
15467,217,15483,140182,0,7304,15497,129343,0,6255
15497,3984,15513,140200,8,7403,15527,129425,0,6326
15527,265,15543,140299,41,7384,15557,129432,0,6330
15557,3999,15573,140366,16,7405,15587,129432,13,6369
15587,235,15604,140460,16,7360,15617,129423,26,6360
15617,3959,15629,140571,33,7389,15642,129533,2,6358
15642,2435,15654,140383,53,7399,15668,129486,12,6358
15668,158,15684,139841,0,7392,15698,129108,0,6261
15698,4095,15714,139493,8,7394,15728,128929,0,6284
15728,187,15744,139378,14,7356,15758,128907,0,6279
15758,4081,15775,139451,0,7324,15788,128852,11,6335
15788,139,15800,139595,23,7182,15813,128885,6,6329
15813,1978,15825,139756,45,7336,15838,128905,27,6294
15838,4080,15850,139855,7,7407,15863,128979,28,6330
15863,1979,15875,139954,2,7421,15888,129002,14,6336
15888,224,15900,139935,7,7319,15914,129058,0,6317
15914,2577,15930,139894,7,7401,15944,128944,6,6299
15944,1391,15956,139800,20,7356,15969,128799,0,6313
15969,300,15981,139761,42,7256,15994,128763,0,6334
15994,2557,16006,139782,44,7386,16019,128725,0,6297
16019,3819,16031,139870,12,7444,16044,128649,0,6351
16044,1407,16056,139975,9,7404,16069,128668,31,6346
16069,368,16081,140074,18,7375,16094,128732,18,6333
16094,2645,16106,140172,4,7462,16119,128764,9,6279
16119,3824,16132,140220,0,7423,16145,128664,0,6309
16145,855,16157,140289,48,7364,16170,128620,1,6292
16170,635,16182,140331,44,7384,16195,128547,0,6307
16195,3171,16207,140350,29,7504,16220,128483,0,6293
16220,3366,16232,140373,12,7509,16245,128393,3,6336
16245,912,16257,140399,15,7431,16270,128212,8,6336
16270,689,16282,140401,3,7424,16295,128066,22,6315
16295,3178,16308,140450,1,7464,16320,128032,13,6253
16320,3279,16333,140504,0,7462,16345,127884,7,6256
16345,829,16358,140516,0,7423,16371,127737,3,6234
16371,1100,16383,140207,8,7497,16396,127496,0,6199
16396,3718,16408,139800,39,7486,16421,127260,0,6144
16421,2896,16433,139513,17,7435,16446,127092,0,6179
16446,496,16458,139412,13,7296,16471,127063,0,6175
16471,1094,16484,139456,3,7343,16496,127211,18,6178
16496,3648,16509,139548,0,7394,16521,127318,7,6176
16521,2800,16534,139719,0,7442,16546,127370,9,6192
16546,400,16559,139801,0,7355,16571,127446,12,6201
16571,1067,16584,139862,16,7485,16597,127480,8,6169
16597,4095,16609,139955,8,7465,16622,127462,0,6154
16622,2384,16635,139944,3,7433,16647,127489,56,6189
16647,215,16660,139864,0,7282,16672,127468,29,6215
16672,1589,16685,139805,0,7403,16697,127480,19,6200
16697,4043,16710,139810,0,7447,16722,127495,18,6213
16722,2306,16735,139876,0,7474,16747,127517,11,6222
16747,186,16760,139925,19,7402,16772,127590,16,6232
16772,1569,16785,140014,17,7485,16797,127671,0,6193
16797,4026,16811,140123,18,7469,16823,127757,18,6217
16823,1825,16836,140285,0,7428,16848,127818,29,6205
16848,186,16861,140327,0,7372,16873,127858,61,6234
16873,2119,16886,140356,0,7525,16898,127858,44,6216
16898,4032,16911,140399,0,7544,16923,127851,10,6259
16923,1795,16936,140355,11,7506,16948,127860,20,6301
16948,153,16961,140356,26,7464,16973,127877,8,6289
16973,2096,16987,140394,22,7510,17003,127906,20,6273
17003,1782,17017,140484,6,7418,17028,127927,0,6285
17028,144,17042,140655,0,7428,17054,127961,22,6257
17054,2704,17067,140562,0,7545,17079,127896,35,6198
17079,3662,17092,140194,9,7544,17104,127659,48,6221
17104,1232,17117,139700,29,7432,17129,127412,35,6209
17129,341,17142,139405,0,7413,17154,127229,0,6198
17154,2688,17168,139297,8,7392,17184,127214,2,6190
17184,1217,17198,139399,0,7280,17214,127271,24,6185
17214,2680,17228,139590,0,7420,17239,127302,0,6126
17239,3617,17253,139663,0,7435,17265,127301,2,6156
17265,734,17278,139639,10,7356,17290,127304,33,6132
17290,707,17303,139650,29,7403,17315,127293,47,6149
17315,3248,17328,139707,21,7409,17340,127296,32,6097
17340,3162,17354,139757,1,7353,17370,127297,0,6170
17370,715,17384,139726,0,7368,17400,127299,0,6123
17400,3149,17414,139803,0,7391,17430,127343,23,6177
17430,711,17444,139865,1,7385,17460,127387,22,6107
17460,3126,17474,139908,32,7352,17486,127424,0,6150
17486,371,17499,139902,15,7172,17511,127512,20,6156
17511,1165,17525,140073,6,7233,17541,127588,11,6112
17541,2705,17555,140174,0,7199,17571,127677,0,6188
17571,1151,17585,140325,0,7206,17601,127691,0,6164
17601,2686,17615,140357,0,7168,17631,127749,19,6203
17631,1142,17645,140339,17,7153,17661,127782,19,6167
17661,2674,17675,140335,15,7048,17686,127814,0,6203
17686,309,17701,140366,8,6867,17717,127881,14,6144
17717,4080,17731,140441,2,7036,17747,127927,0,6165
17747,160,17761,140593,0,6954,17777,127929,0,6121
17777,4006,17791,140430,15,7112,17807,127695,0,6144
17807,139,17821,139846,10,6987,17837,127313,0,6049
17837,4034,17852,139413,8,7064,17867,127177,10,6059
17867,129,17882,139256,11,6895,17897,127145,21,5962
17897,4016,17912,139300,0,7026,17927,127221,17,6003
17927,120,17942,139440,0,7060,17958,127259,16,5892
17958,3968,17972,139583,16,7194,17988,127237,0,5941
17988,162,18002,139591,18,7139,18018,127230,0,5850
18018,3929,18033,139626,18,7186,18048,127303,0,5938
18048,158,18063,139618,0,7156,18078,127356,0,5873
18078,3911,18093,139590,0,7251,18108,127372,19,5943
18108,151,18123,139588,0,7292,18138,127415,14,5857
18138,3885,18153,139662,0,7302,18169,127462,25,5944
18169,402,18183,139737,0,7287,18199,127505,2,5861
18199,3507,18214,139842,3,7257,18229,127555,0,5962
18229,375,18244,139943,0,7255,18259,127648,0,5949
18259,3462,18274,140055,0,7314,18289,127779,0,6057
18289,384,18304,140160,0,7306,18319,127819,12,5998
18319,3459,18334,140182,5,7306,18349,127847,24,6084
18349,394,18364,140224,15,7253,18379,127834,31,6024
18379,3459,18395,140194,7,7176,18410,127879,12,6074
18410,772,18425,140251,0,7174,18440,127957,7,6022
18440,3022,18455,140318,0,7196,18470,128046,0,6110
18470,764,18485,140437,10,7223,18500,128113,0,6079
18500,3006,18515,140408,35,7161,18530,127982,6,6098
18530,757,18546,139907,9,7132,18560,127635,8,5985
18560,3034,18576,139411,0,6958,18590,127418,13,5995
18590,794,18606,139177,0,7018,18621,127391,0,5903
18621,2592,18636,139230,0,7024,18651,127450,21,5944
18651,1210,18666,139386,19,7120,18681,127502,0,5861
18681,2559,18696,139504,5,7074,18711,127630,0,5959
18711,1235,18727,139568,11,7128,18741,127753,0,5893
18741,2589,18757,139622,0,7034,18771,127769,18,5957
18771,1254,18787,139629,0,7216,18801,127791,16,5862
18801,2609,18817,139605,0,7154,18831,127820,11,5888
18831,1301,18847,139590,12,7288,18862,127872,4,5779
18862,2096,18877,139643,0,7183,18892,127926,4,5865
18892,1761,18908,139714,6,7251,18922,128151,0,5849
18922,2091,18938,139821,0,7153,18952,128272,0,5952
18952,1802,18968,139963,0,7363,18982,128413,0,5953
18982,2114,18998,140080,0,7269,19012,128479,25,6017
19012,1838,19028,140146,29,7412,19042,128519,16,6000
19042,2115,19058,140176,24,7284,19073,128543,8,6041
19073,2327,19089,140182,4,7372,19103,128640,0,6025
19103,1552,19119,140197,7,7269,19133,128719,0,6107
19133,2352,19149,140263,11,7454,19163,128776,0,6140
19163,1589,19179,140343,34,7366,19193,128774,2,6196
19193,2406,19209,140408,39,7478,19223,128768,23,6187
19223,1584,19240,140515,36,7346,19253,128746,23,6201
19253,2354,19265,140565,31,7430,19278,128806,11,6156
19278,3871,19290,140280,63,7430,19304,128653,11,6158
19304,1023,19320,139712,0,7358,19334,128331,5,6134
19334,2947,19350,139393,8,7397,19364,128213,0,6103
19364,1051,19380,139325,27,7294,19394,128238,0,6146
19394,2943,19411,139454,7,7366,19424,128180,0,6169
19424,1023,19436,139586,15,7318,19449,128233,13,6167
19449,487,19461,139709,52,7272,19474,128264,7,6159
19474,2917,19486,139803,2,7397,19499,128372,11,6121
19499,3509,19511,139854,5,7443,19525,128441,11,6157
19525,612,19541,139838,1,7387,19555,128412,1,6147
19555,3475,19571,139758,0,7438,19585,128414,0,6148
19585,576,19597,139720,10,7345,19610,128335,0,6171
19610,875,19622,139739,32,7335,19635,128329,0,6185
19635,3474,19647,139795,35,7411,19660,128337,0,6166
19660,3022,19672,139885,4,7459,19685,128385,13,6208
19685,610,19697,140001,20,7392,19710,128443,23,6191
19710,964,19722,140089,3,7450,19735,128525,0,6170
19735,3551,19747,140176,6,7473,19761,128558,4,6152
19761,2517,19773,140227,7,7453,19786,128481,0,6172
19786,272,19798,140263,33,7362,19811,128491,0,6208
19811,1366,19823,140270,37,7459,19836,128528,0,6197
19836,3944,19848,140278,19,7541,19861,128507,0,6210
19861,2555,19873,140288,18,7529,19886,128494,5,6230
19886,336,19898,140317,17,7427,19911,128481,18,6241
19911,1424,19923,140343,9,7516,19936,128487,26,6216
19936,3983,19949,140425,1,7490,19961,128478,0,6187
19961,2517,19974,140500,0,7509,19987,128466,0,6206
19987,173,19999,140546,38,7429,20012,128413,9,6195
20012,1919,20024,140306,10,7559,20037,128207,1,6150
20037,4095,20049,139860,27,7527,20062,127934,0,6153
20062,2096,20074,139508,14,7464,20087,127673,0,6164
20087,199,20099,139367,0,7323,20112,127611,11,6142
20112,1926,20125,139388,10,7371,20137,127740,10,6117
20137,4071,20150,139503,0,7402,20162,127813,12,6149
20162,2001,20175,139632,0,7401,20187,127811,7,6145
20187,148,20200,139732,0,7368,20213,127857,6,6153
20213,2507,20225,139882,13,7481,20238,127905,0,6103
20238,4000,20250,139898,11,7464,20263,127911,0,6153
20263,1520,20276,139877,0,7403,20288,127921,19,6183
20288,274,20301,139813,0,7332,20313,127878,11,6188
20313,2465,20326,139745,4,7415,20338,127855,21,6154
20338,3839,20351,139755,0,7450,20363,127923,19,6195
20363,1456,20376,139792,0,7427,20388,127984,16,6188
20388,241,20401,139851,0,7430,20413,128040,10,6205
20413,2435,20426,139913,25,7488,20439,128091,7,6142
20439,3472,20452,140125,0,7464,20464,128145,43,6186
20464,960,20477,140213,0,7379,20489,128213,47,6214
20489,577,20502,140269,0,7435,20514,128255,30,6230
20514,3021,20527,140310,0,7502,20539,128305,15,6218
20539,3383,20552,140339,0,7552,20564,128321,24,6265
20564,910,20577,140320,16,7458,20589,128365,24,6264
20589,555,20602,140297,18,7501,20614,128384,11,6248
20614,3017,20628,140346,0,7509,20639,128391,0,6201
20639,3344,20653,140455,0,7501,20665,128391,15,6240
20665,509,20678,140457,0,7394,20690,128413,28,6246
20690,975,20703,140551,0,7549,20715,128480,68,6257
20715,3566,20728,140614,0,7576,20740,128461,36,6236
20740,2896,20753,140313,4,7573,20765,128257,5,6265
20765,487,20778,139746,0,7402,20790,127982,26,6230
20790,960,20804,139424,2,7442,20820,127830,22,6161
20820,2896,20834,139286,7,7358,20845,127810,0,6189
20845,468,20859,139403,0,7242,20871,127874,0,6174
20871,1456,20884,139428,0,7408,20896,127944,11,6155
20896,3980,20909,139528,0,7427,20921,127955,35,6143
20921,2416,20934,139547,14,7417,20946,128003,38,6174
20946,225,20959,139613,2,7327,20971,128064,15,6228
20971,1456,20985,139694,5,7402,21001,128118,0,6190
21001,2417,21015,139706,0,7358,21031,128118,15,6235
21031,1456,21045,139734,0,7416,21061,128120,29,6193
21061,2395,21075,139766,0,7408,21086,128096,0,6202
21086,179,21100,139683,15,7328,21112,128149,19,6192
21112,1981,21125,139671,4,7388,21137,128188,23,6139
21137,4053,21151,139791,7,7370,21167,128183,0,6188
21167,144,21181,139978,10,7213,21197,128252,0,6177
21197,4063,21211,140143,0,7309,21227,128347,0,6253
21227,144,21241,140278,0,7243,21257,128387,20,6204
21257,4047,21271,140294,12,7306,21287,128414,23,6248
21287,123,21301,140269,13,7152,21312,128392,0,6230
21312,1974,21327,140300,19,7157,21343,128413,0,6203
21343,1354,21357,140317,0,6984,21373,128415,0,6221
21373,2555,21387,140409,0,7102,21403,128429,0,6220
21403,1335,21417,140525,0,6981,21433,128490,0,6250
21433,2548,21447,140582,20,7135,21463,128511,0,6243
21463,1328,21477,140303,20,6908,21493,128286,22,6208
21493,2545,21508,139729,16,6999,21523,127940,5,6137
21523,1315,21538,139310,0,6765,21554,127779,17,6095
21554,3111,21568,139283,0,6961,21584,127841,7,6061
21584,841,21598,139367,0,6903,21614,127879,0,6043
21614,3091,21628,139475,18,7079,21644,127914,0,6062
21644,829,21658,139554,6,6938,21674,127974,0,6083
21674,3078,21689,139616,4,7069,21704,128012,0,6058
21704,810,21719,139626,0,6952,21734,128070,12,6033
21734,3088,21749,139626,3,7185,21764,128078,20,6034
21764,785,21779,139599,13,7091,21795,128059,0,5979
21795,3600,21809,139628,29,7238,21825,128076,0,6004
21825,423,21840,139662,12,7111,21855,128143,0,5998
21855,3568,21870,139770,3,7230,21885,128224,0,6054
21885,406,21900,139905,0,7158,21915,128312,0,6064
21915,3562,21930,140024,0,7326,21945,128415,22,6119
21945,396,21960,140169,10,7246,21975,128504,15,6097
21975,3568,21990,140221,14,7317,22006,128532,17,6133
22006,174,22021,140243,0,7164,22036,128571,0,6102
22036,3978,22051,140270,0,7234,22066,128586,0,6181
22066,176,22081,140313,0,7160,22096,128632,0,6184
22096,3957,22111,140375,4,7269,22126,128675,0,6242
22126,164,22141,140470,27,7170,22156,128738,26,6203
22156,3927,22171,140549,16,7203,22186,128775,24,6245
22186,162,22202,140550,0,7057,22216,128678,4,6180
22216,3962,22232,140027,0,7104,22247,128402,14,6147
22247,129,22262,139496,0,7038,22277,128147,0,6042
22277,3963,22292,139265,1,7085,22307,128095,0,6087
22307,143,22322,139257,35,7044,22337,128198,0,6041
22337,3962,22353,139451,14,7099,22367,128343,8,6098
22367,145,22383,139570,0,7067,22397,128383,36,6032
22397,3993,22413,139678,0,7145,22427,128451,6,6070
22427,166,22443,139746,0,7206,22458,128507,13,5952
22458,3663,22473,139781,7,7261,22488,128547,0,5985
22488,290,22503,139725,20,7260,22518,128527,0,5885
22518,3639,22534,139697,0,7250,22548,128633,0,6002
22548,311,22564,139715,0,7262,22578,128673,0,5920
22578,3664,22594,139821,0,7312,22608,128761,16,6025
22608,355,22624,139979,0,7362,22638,128916,26,5933
22638,3715,22654,140130,13,7379,22668,128989,18,6035
22668,352,22684,140209,25,7392,22699,129008,1,5945
22699,3186,22715,140290,21,7346,22729,129066,0,6068
22729,640,22745,140304,4,7389,22759,129060,0,6023
22759,3218,22775,140347,8,7413,22789,129038,0,6163
22789,701,22805,140384,22,7471,22819,129024,3,6114
22819,3248,22835,140395,28,7440,22849,129012,32,6208
22849,698,22866,140466,39,7466,22879,128948,12,6151
22879,3210,22891,140545,48,7439,22905,129086,16,6206
22905,394,22921,140610,0,7380,22935,129043,0,6196
22935,3697,22951,140356,11,7508,22965,128886,0,6183
22965,429,22981,139845,27,7428,22995,128542,0,6161
22995,3714,23011,139471,16,7439,23025,128338,10,6166
23025,407,23042,139414,8,7351,23055,128265,14,6123
23055,3671,23067,139511,20,7355,23080,128319,29,6124
23080,2768,23092,139682,52,7387,23105,128426,0,6145
23105,426,23117,139819,11,7364,23131,128472,13,6151
23131,1623,23147,139964,0,7504,23161,128503,14,6105
23161,2327,23177,140026,8,7403,23191,128601,0,6136
23191,1600,23208,139960,12,7460,23221,128462,0,6143
23221,2286,23233,139876,14,7424,23246,128369,0,6167
23246,192,23258,139827,55,7314,23271,128289,14,6150
23271,1611,23283,139830,6,7468,23296,128313,26,6129
23296,4095,23308,139870,6,7511,23321,128372,0,6125
23321,2354,23333,139979,10,7510,23347,128495,0,6148
23347,206,23363,140122,10,7520,23377,128515,0,6083
23377,4023,23389,140213,9,7489,23402,128475,1,6119
23402,1790,23414,140297,26,7475,23427,128461,0,6154
23427,176,23439,140362,38,7382,23452,128453,0,6187
23452,2128,23464,140396,15,7536,23477,128408,0,6146
23477,4093,23489,140386,28,7566,23502,128432,6,6174
23502,1870,23514,140401,8,7555,23527,128448,29,6167
23527,243,23539,140435,5,7448,23552,128517,22,6169
23552,2175,23565,140447,0,7514,23578,128452,0,6094
23578,3687,23590,140521,34,7540,23603,128459,0,6139
23603,1257,23615,140584,51,7517,23628,128431,7,6167
23628,376,23640,140440,20,7503,23653,128291,0,6147
23653,2753,23665,140019,13,7565,23678,128032,12,6092
23678,3772,23690,139639,27,7511,23703,127789,0,6106
23703,1294,23715,139441,0,7401,23728,127727,20,6102
23728,385,23741,139408,15,7347,23753,127766,5,6080
23753,2691,23766,139522,2,7434,23778,127793,0,6025
23778,3664,23791,139664,0,7471,23804,127836,5,6089
23804,805,23816,139831,24,7427,23829,127907,0,6074
23829,768,23841,139933,19,7471,23854,127979,0,6091
23854,3310,23866,139976,1,7505,23879,127990,0,6057
23879,3262,23891,139979,14,7494,23904,127929,0,6118
23904,795,23917,139888,0,7361,23929,127991,35,6113
23929,702,23942,139818,0,7441,23954,127984,11,6114
23954,3216,23967,139814,0,7488,23979,128012,0,6072
23979,3204,23992,139854,0,7527,24004,128110,1,6115
24004,768,24017,139888,7,7444,24030,128184,0,6118
24030,1220,24042,140085,17,7522,24055,128265,1,6108
24055,3782,24068,140175,6,7512,24080,128299,47,6092
24080,2778,24093,140270,0,7504,24105,128323,23,6165
24105,402,24118,140325,0,7393,24130,128334,20,6159
24130,1131,24143,140388,0,7544,24155,128332,12,6165
24155,3696,24168,140395,0,7581,24180,128324,24,6139
24180,2746,24193,140362,28,7613,24205,128346,17,6160
24205,381,24218,140352,33,7477,24230,128339,0,6167
24230,1117,24244,140391,9,7575,24256,128375,27,6134
24256,4093,24269,140514,7,7532,24281,128439,34,6122
24281,2286,24294,140560,0,7549,24306,128441,53,6164
24306,192,24319,140619,0,7497,24331,128403,29,6197
24331,1622,24344,140363,0,7614,24356,128203,18,6128
24356,4033,24369,139838,19,7583,24381,127904,21,6099
24381,2256,24394,139453,0,7482,24406,127729,13,6102
24406,167,24420,139287,16,7353,24431,127680,0,6080
24431,1605,24445,139394,0,7417,24456,127712,0,6041
24456,3994,24470,139523,0,7427,24482,127755,12,6051
24482,1779,24495,139564,0,7448,24507,127782,33,6065
24507,176,24520,139638,2,7410,24532,127807,33,6065
24532,2136,24545,139637,15,7512,24557,127836,32,6053
24557,4006,24570,139710,22,7476,24582,127833,24,6108
24582,1751,24596,139754,0,7389,24612,127891,7,6117
24612,2128,24626,139739,0,7464,24642,127869,16,6093
24642,1750,24656,139777,0,7413,24667,127885,0,6103
24667,144,24681,139771,0,7456,24693,127901,10,6090
24693,2707,24706,139743,21,7516,24718,127949,36,6040
24718,3648,24731,139788,19,7490,24743,127999,52,6097
24743,1207,24757,139901,21,7401,24773,128047,0,6129
24773,2699,24787,140063,0,7450,24803,128128,0,6158
24803,1205,24817,140221,0,7384,24833,128184,8,6159
24833,2703,24847,140343,0,7511,24863,128177,24,6140
24863,1200,24877,140362,9,7385,24888,128152,0,6135
24888,332,24902,140298,18,7424,24914,128155,28,6132
24914,3231,24928,140260,5,7389,24944,128175,2,6118
24944,737,24958,140324,0,7159,24974,128193,0,6121
24974,3201,24988,140469,0,7300,25004,128206,0,6165
25004,739,25018,140608,0,7147,25034,128256,9,6163
25034,3200,25048,140565,8,7261,25064,128115,12,6143
25064,717,25078,139993,18,7019,25094,127779,14,6080
25094,3186,25109,139473,6,7050,25124,127513,20,6038
25124,705,25139,139196,1,6788,25155,127449,2,5977
25155,3693,25169,139288,0,6960,25185,127520,0,5991
25185,368,25199,139457,0,6851,25215,127562,0,6003
25215,3686,25229,139519,21,7060,25245,127551,0,6029
25245,343,25259,139533,15,6883,25275,127577,24,5993
25275,3662,25290,139579,9,7046,25305,127614,15,6026
25305,355,25320,139584,5,6924,25335,127630,14,5956
25335,3643,25350,139552,0,7164,25366,127570,0,5948
25366,171,25380,139637,0,7095,25396,127506,1,5871
25396,4009,25410,139634,16,7240,25426,127477,0,5918
25426,147,25441,139676,19,7130,25456,127519,0,5890
25456,3985,25471,139795,0,7249,25486,127592,6,5959
25486,135,25501,139912,0,7193,25516,127692,19,5906
25516,3958,25531,140031,15,7375,25546,127740,15,5962
25546,144,25561,140111,20,7324,25577,127781,5,5898
25577,3972,25591,140163,27,7399,25607,127765,0,5948
25607,173,25622,140206,8,7318,25637,127755,0,5910
25637,3966,25652,140202,0,7356,25667,127775,2,6032
25667,150,25682,140260,0,7339,25697,127843,0,6013
25697,3926,25712,140339,0,7400,25727,127902,20,6104
25727,151,25742,140443,0,7356,25757,127976,12,6043
25757,3908,25772,140539,11,7346,25787,128016,15,6119
25787,151,25803,140177,0,7219,25818,127671,0,5980
25818,3599,25833,139567,0,7194,25848,127314,0,6007
25848,346,25863,139195,0,7126,25878,127164,0,5929
25878,3543,25893,139132,0,7092,25908,127233,0,6012
25908,347,25923,139243,24,7088,25938,127322,5,5970
25938,3540,25953,139343,13,7056,25968,127356,12,6018
25968,359,25984,139384,2,6983,25998,127412,7,5926
25998,3600,26014,139403,0,7014,26029,127485,0,5983
26029,694,26044,139471,0,7115,26059,127498,13,5864
26059,3107,26074,139482,1,7132,26089,127547,0,5922
26089,684,26104,139454,25,7163,26119,127585,0,5888
26119,3119,26135,139460,26,7113,26149,127650,0,5952
26149,694,26165,139514,0,7140,26179,127715,6,5859
26179,3143,26195,139611,0,7156,26209,127835,24,5915
26209,730,26225,139759,0,7299,26239,127891,9,5833
26239,3214,26255,139906,0,7270,26270,127905,10,5867
26270,1113,26285,139980,17,7321,26300,127963,0,5769
26300,2695,26316,140035,1,7237,26330,128070,0,5887
26330,1111,26346,140080,0,7325,26360,128116,0,5852
26360,2719,26376,140100,0,7305,26390,128161,5,5943
26390,1163,26406,140178,2,7431,26420,128178,38,5919
26420,2755,26436,140242,23,7363,26450,128187,10,5996
26450,1173,26466,140317,28,7446,26481,128248,0,5923
26481,2224,26497,140395,6,7305,26511,128377,0,5996
26511,1613,26527,140473,0,7429,26541,128482,0,6008
26541,2266,26557,140518,14,7394,26571,128396,0,6086
26571,1648,26587,140033,28,7478,26601,128003,6,6029
26601,2291,26617,139470,41,7323,26631,127706,11,6031
26631,1652,26648,139198,32,7371,26661,127591,32,6004
26661,2261,26673,139198,46,7325,26686,127731,3,6025
26686,193,26698,139303,83,7224,26712,127822,0,6012
26712,2155,26728,139462,0,7393,26742,127883,0,6002
26742,1785,26758,139559,27,7299,26772,127975,0,6041
26772,2182,26788,139643,15,7407,26802,128084,0,6065
26802,1776,26819,139655,7,7291,26832,128008,1,6080
26832,2115,26844,139630,26,7363,26857,128053,13,6047
26857,3982,26869,139591,57,7398,26882,128154,14,6065
26882,1803,26894,139567,13,7413,26907,128274,17,6070
26907,230,26919,139634,6,7361,26933,128364,12,6066
26933,2744,26949,139730,12,7460,26963,128461,0,6083
26963,1264,26979,139861,1,7364,26993,128523,0,6101
26993,2699,27005,139924,5,7421,27018,128476,0,6087
27018,3664,27030,140027,15,7436,27043,128475,16,6145
27043,1257,27055,140107,13,7447,27068,128517,14,6142
27068,384,27080,140155,0,7420,27093,128538,12,6141
27093,2739,27105,140208,17,7528,27118,128668,23,6098
27118,3787,27130,140208,26,7518,27144,128770,16,6133
27144,793,27161,140218,13,7443,27174,128708,8,6119
27174,3193,27186,140290,12,7485,27199,128746,0,6101
27199,3207,27211,140324,66,7500,27224,128753,0,6169
27224,767,27236,140367,31,7474,27249,128741,0,6190
27249,727,27261,140448,18,7522,27274,128702,0,6173
27274,3264,27286,140549,3,7590,27299,128784,13,6150
27299,3285,27311,140623,19,7580,27324,128834,20,6195
27324,817,27337,140462,5,7462,27349,128690,2,6165
27349,701,27362,139972,2,7456,27375,128379,0,6107
27375,3653,27387,139580,52,7465,27400,128165,3,6032
27400,2781,27412,139395,23,7484,27425,128079,0,6080
27425,461,27437,139390,13,7408,27450,128088,0,6119
27450,1182,27462,139518,8,7483,27475,128101,0,6119
27475,3787,27487,139670,3,7493,27500,128125,14,6101
27500,2816,27513,139816,0,7480,27525,128231,3,6142
27525,425,27538,139910,1,7347,27550,128263,0,6134
27550,1105,27563,139975,0,7471,27576,128271,2,6087
27576,4081,27588,139979,6,7540,27601,128256,0,6086
27601,2337,27613,139916,7,7547,27626,128222,0,6120
27626,277,27638,139854,15,7449,27651,128190,0,6125
27651,1662,27663,139832,0,7534,27676,128188,0,6120
27676,4047,27689,139878,0,7493,27701,128271,24,6142
27701,2315,27714,139966,9,7498,27726,128329,21,6172
27726,186,27739,140068,0,7398,27751,128385,15,6174
27751,1575,27764,140188,0,7559,27776,128408,2,6142
27776,3994,27789,140273,5,7581,27802,128408,0,6154
27802,1904,27814,140371,21,7580,27827,128421,7,6154
27827,242,27839,140418,0,7491,27852,128427,0,6188
27852,2128,27865,140439,0,7569,27877,128462,46,6139
27877,4033,27890,140462,0,7542,27902,128449,16,6200
27902,1824,27915,140449,0,7539,27927,128439,24,6232
27927,177,27940,140491,0,7517,27952,128445,0,6229
27952,2096,27965,140478,14,7616,27977,128455,11,6178
27977,4029,27990,140484,29,7628,28002,128437,18,6214
28002,1826,28015,140595,21,7553,28028,128448,0,6220
28028,379,28041,140767,13,7514,28053,128487,32,6198
28053,2650,28066,140763,0,7561,28078,128380,46,6142
28078,3728,28091,140340,0,7583,28103,128098,30,6163
28103,1306,28116,139839,0,7514,28128,127766,17,6145
28128,329,28141,139512,10,7497,28153,127598,22,6153
28153,2639,28166,139330,19,7515,28178,127607,3,6099
28178,3696,28191,139419,7,7497,28203,127671,25,6139
28203,1287,28217,139630,0,7378,28228,127739,0,6142
28228,301,28242,139855,0,7442,28254,127775,0,6131
28254,3138,28267,139855,0,7527,28279,127823,21,6078
28279,3277,28292,139911,0,7553,28304,127897,49,6149
28304,818,28317,139924,23,7464,28329,127926,22,6174
28329,637,28342,139849,25,7524,28354,127904,9,6184
28354,3118,28368,139819,11,7551,28384,127942,0,6184
28384,816,28398,139834,0,7374,28414,127967,3,6189
28414,3109,28428,139913,0,7506,28439,127974,0,6135
28439,3217,28453,140028,0,7572,28465,127999,0,6167
28465,456,28478,140037,8,7469,28490,128030,37,6160
28490,1061,28503,140088,19,7593,28515,128078,46,6154
28515,3605,28528,140228,1,7581,28540,128107,26,6136
28540,2813,28554,140343,6,7536,28570,128143,8,6225
28570,1038,28584,140439,0,7532,28600,128171,0,6191
28600,2806,28614,140539,0,7562,28630,128198,22,6228
28630,1023,28644,140593,0,7580,28655,128188,0,6189
28655,3537,28669,140548,0,7578,28680,128213,0,6185
28680,2803,28694,140562,23,7519,28706,128226,17,6206
28706,230,28720,140551,6,7343,28736,128255,0,6194
28736,3970,28750,140649,0,7411,28766,128270,0,6231
28766,193,28780,140782,0,7268,28796,128311,0,6232
28796,3937,28810,140937,0,7387,28826,128319,0,6240
28826,206,28840,140740,18,7213,28856,128099,12,6181
28856,3921,28870,140029,20,7241,28881,127734,0,6135
28881,2347,28896,139629,0,7035,28912,127485,21,6110
28912,2025,28926,139389,3,7034,28942,127448,2,6048
28942,1888,28956,139502,0,6947,28972,127504,0,6105
28972,2002,28986,139717,0,7103,29002,127569,0,6096
29002,1886,29016,139801,15,7006,29032,127592,3,6121
29032,1982,29046,139823,11,7115,29062,127644,9,6094
29062,1870,29077,139873,15,6979,29092,127603,20,6090
29092,1967,29107,139873,0,7132,29122,127598,8,6050
29122,1871,29137,139840,0,7080,29153,127540,0,6024
29153,2519,29167,139923,0,7276,29183,127547,1,6010
29183,1347,29197,139903,41,7171,29213,127568,0,6015
29213,2531,29227,139962,13,7318,29243,127669,0,6028
29243,1341,29258,140094,9,7152,29273,127787,14,6048
29273,2502,29288,140195,4,7380,29303,127843,20,6051
29303,1342,29318,140315,0,7296,29333,127920,20,6047
29333,2503,29348,140430,21,7485,29364,127953,9,6038
29364,860,29378,140460,12,7352,29394,128005,6,6044
29394,3043,29409,140494,19,7468,29424,128027,0,6076
29424,860,29439,140495,0,7296,29454,128074,0,6122
29454,3023,29469,140534,0,7460,29484,128114,8,6158
29484,854,29499,140605,4,7383,29514,128177,16,6180
29514,3019,29529,140719,19,7514,29544,128225,20,6191
29544,863,29559,140802,12,7337,29574,128310,20,6208
29574,3019,29590,140887,10,7403,29605,128281,5,6195
29605,464,29620,140547,0,7212,29635,127963,0,6156
29635,3487,29650,139919,0,7337,29665,127585,0,6135
29665,448,29680,139553,5,7157,29695,127456,0,6122
29695,3478,29710,139481,10,7239,29725,127549,16,6138
29725,455,29740,139556,5,7074,29755,127645,8,6124
29755,3477,29771,139704,1,7145,29785,127705,7,6129
29785,486,29801,139769,0,7036,29816,127784,0,6084
29816,3856,29831,139855,0,7207,29846,127860,0,6096
29846,208,29861,139929,6,7170,29876,127922,0,6073
29876,3857,29891,139894,14,7275,29906,127994,0,6132
29906,199,29922,139853,29,7195,29936,128032,0,6073
29936,3853,29952,139846,0,7259,29966,128057,17,6123
29966,238,29982,139910,0,7246,29996,128139,13,6049
29996,3931,30012,140027,0,7394,30027,128237,11,6083
30027,128,30042,140207,15,7396,30057,128312,0,5970
30057,4015,30072,140333,19,7455,30087,128366,0,6034
30087,119,30103,140450,0,7417,30117,128505,0,5984
30117,4006,30133,140506,0,7453,30147,128563,0,6108
30147,144,30163,140552,0,7482,30177,128607,11,6023
30177,4094,30193,140613,2,7566,30207,128700,25,6120
30207,190,30223,140644,21,7573,30237,128803,21,6050
30237,4077,30253,140706,15,7577,30268,128854,0,6129
30268,240,30284,140723,0,7541,30298,128963,0,6066
30298,3767,30314,140799,2,7558,30328,129046,0,6200
30328,269,30344,140914,2,7627,30358,129042,9,6200
30358,3824,30374,141078,9,7647,30388,129045,3,6308
30388,302,30404,140867,45,7635,30418,128846,23,6236
30418,3842,30434,140189,18,7585,30448,128465,14,6246
30448,322,30460,139762,37,7421,30474,128335,4,6223
30474,3098,30490,139575,17,7507,30504,128237,0,6210
30504,816,30520,139667,2,7457,30534,128348,10,6232
30534,3237,30550,139898,32,7595,30564,128421,0,6275
30564,848,30580,140038,30,7510,30594,128398,0,6292
30594,3215,30611,140124,20,7593,30624,128341,27,6305
30624,818,30636,140205,17,7485,30649,128400,19,6288
30649,295,30661,140189,69,7476,30674,128480,7,6304
30674,3200,30686,140136,23,7614,30700,128517,10,6229
30700,3154,30716,140078,0,7564,30730,128510,3,6272
30730,793,30746,140085,11,7653,30760,128608,0,6244
30760,3152,30776,140171,0,7551,30790,128645,0,6329
30790,727,30802,140274,10,7533,30815,128551,7,6330
30815,3876,30827,140402,37,7610,30840,128569,12,6301
30840,3146,30852,140508,5,7665,30865,128520,12,6340
30865,358,30877,140577,18,7582,30890,128600,13,6339
30890,800,30902,140645,17,7646,30916,128652,14,6300
30916,4095,30932,140706,0,7684,30946,128609,0,6293
30946,2,30963,140691,0,7625,30976,128504,0,6289
30976,4095,30988,140722,20,7638,31001,128486,0,6293
31001,2666,31013,140720,40,7671,31026,128462,0,6355
31026,12,31038,140747,25,7596,31051,128440,0,6363
31051,1302,31063,140804,26,7706,31076,128471,6,6334
31076,4095,31088,140890,18,7754,31101,128464,14,6324
31101,2731,31113,140992,7,7719,31126,128549,11,6345
31126,46,31139,141049,0,7559,31152,128471,0,6328
31152,1839,31164,140774,35,7667,31177,128235,0,6241
31177,4095,31189,140262,41,7668,31202,127866,11,6240
31202,2159,31214,139898,11,7689,31227,127612,0,6255
31227,18,31239,139795,15,7562,31252,127570,0,6260
31252,1904,31264,139839,14,7677,31277,127555,0,6224
31277,4095,31289,140005,0,7670,31302,127626,4,6276
31302,2154,31315,140150,7,7632,31327,127724,10,6272
31327,0,31340,140295,0,7546,31352,127775,7,6265
31352,1792,31365,140412,0,7706,31378,127843,0,6203
31378,4095,31390,140481,25,7729,31403,127880,0,6232
31403,1620,31415,140425,7,7701,31428,127849,0,6273
31428,42,31440,140323,19,7610,31453,127827,0,6288
31453,2475,31465,140258,0,7699,31478,127812,0,6253
31478,4095,31491,140251,0,7659,31503,127943,10,6288
31503,1564,31516,140297,0,7618,31528,127988,2,6327
31528,0,31541,140400,0,7628,31553,128065,0,6297
31553,2384,31566,140521,0,7754,31578,128101,1,6252
31578,4095,31591,140621,7,7766,31604,128103,4,6281
31604,1008,31616,140778,9,7678,31629,128148,1,6315
31629,298,31642,140852,0,7654,31654,128185,41,6324
31654,3088,31667,140897,2,7708,31679,128202,28,6283
31679,3792,31692,140903,0,7727,31704,128213,16,6358
31704,955,31717,140928,0,7668,31729,128206,19,6352
31729,231,31742,140921,0,7720,31754,128219,17,6353
31754,3039,31767,140884,21,7797,31779,128206,6,6289
31779,3794,31792,140926,10,7791,31805,128223,0,6346
31805,473,31818,141083,0,7650,31830,128274,20,6339
31830,668,31843,141152,0,7708,31855,128319,23,6327
31855,3729,31868,141155,0,7747,31880,128208,37,6272
31880,3264,31893,140707,0,7778,31905,127894,20,6304
31905,430,31918,140194,0,7654,31930,127582,21,6281
31930,629,31943,139870,26,7724,31955,127457,21,6255
31955,3703,31968,139750,12,7704,31980,127467,20,6223
31980,3246,31994,139864,0,7683,32005,127529,0,6243
32005,438,32019,140119,0,7555,32031,127618,0,6243
32031,1150,32044,140198,0,7700,32056,127673,22,6209
32056,4095,32069,140294,5,7755,32081,127717,49,6192
32081,2752,32094,140362,0,7766,32106,127767,31,6243
32106,62,32119,140331,15,7658,32131,127778,9,6268
32131,1117,32144,140309,7,7759,32156,127757,2,6253
32156,4095,32170,140305,0,7717,32186,127770,11,6265
32186,74,32200,140279,0,7606,32216,127729,17,6223
32216,4095,32230,140397,0,7760,32241,127767,0,6216
32241,2749,32255,140437,1,7760,32267,127844,4,6249
32267,0,32280,140453,11,7685,32292,127896,33,6240
32292,1687,32305,140552,4,7787,32317,127924,64,6201
32317,4095,32331,140719,16,7757,32347,128009,0,6277
32347,0,32361,140868,0,7611,32377,128056,0,6261
32377,4095,32391,141008,0,7758,32407,128126,21,6307
32407,0,32421,141086,0,7654,32437,128122,14,6238
32437,4095,32451,141046,15,7753,32462,128122,0,6269
32462,2224,32476,141033,16,7598,32488,128127,10,6265
32488,0,32502,140989,16,7512,32518,128149,0,6204
32518,4095,32532,141098,0,7540,32548,128176,0,6272
32548,0,32562,141247,0,7403,32578,128230,0,6256
32578,4095,32592,141352,6,7506,32608,128240,7,6313
32608,0,32622,141089,7,7377,32638,127978,19,6203
32638,4095,32652,140369,9,7367,32668,127576,5,6188
32668,0,32683,139934,14,7153,32698,127385,11,6089
32698,4095,32713,139824,0,7246,32729,127379,0,6111
32729,163,32743,140014,0,7214,32759,127456,0,6049
32759,3900,32773,140198,0,7349,32789,127511,0,6117
32789,142,32803,140256,25,7355,32819,127575,2,6054
32819,3857,32833,140259,15,7409,32849,127643,24,6124
32849,121,32864,140298,0,7374,32879,127664,21,6036
32879,3843,32894,140273,0,7440,32909,127696,16,6084
32909,112,32924,140243,0,7513,32940,127651,7,5953
32940,3341,32954,140324,9,7574,32970,127667,4,6015
32970,506,32984,140314,21,7619,33000,127681,0,5918
33000,3328,33015,140420,3,7600,33030,127755,0,6062
33030,491,33045,140545,0,7610,33060,127877,0,5999
33060,3311,33075,140699,0,7663,33090,127932,7,6091
33090,458,33105,140814,0,7723,33120,127973,15,6010
33120,3303,33135,140901,21,7706,33151,128007,0,6098
33151,975,33165,140927,9,7696,33181,128058,0,6018
33181,2843,33196,140938,0,7623,33211,128052,1,6133
33211,959,33226,140974,0,7628,33241,128105,0,6119
33241,2830,33256,141010,0,7598,33271,128109,0,6219
33271,932,33286,141108,2,7647,33301,128177,13,6184
33301,2835,33316,141181,16,7542,33331,128208,27,6267
33331,937,33347,141271,12,7570,33361,128179,18,6171
33361,2864,33377,140870,0,7354,33392,127831,2,6168
33392,1509,33407,140200,0,7438,33422,127459,13,6036
33422,2345,33437,139885,0,7309,33452,127293,0,6083
33452,1478,33467,139872,12,7442,33482,127356,0,6057
33482,2335,33497,139972,8,7299,33512,127428,0,6116
33512,1462,33528,140102,18,7425,33542,127456,21,6040
33542,2346,33558,140161,4,7258,33572,127524,23,6056
33572,1479,33588,140258,0,7507,33603,127550,11,5975
33603,1809,33618,140313,0,7418,33633,127554,4,5984
33633,2058,33648,140309,12,7605,33663,127571,0,5945
33663,1808,33678,140280,18,7456,33693,127582,0,5985
33693,2055,33709,140271,0,7579,33723,127652,0,5953
33723,1847,33739,140311,0,7466,33753,127657,24,5982
33753,2085,33769,140438,0,7705,33783,127750,15,5946
33783,1872,33799,140619,0,7601,33813,127817,16,5963
33813,2122,33829,140759,21,7754,33844,127916,1,5950
33844,1211,33860,140852,14,7576,33874,128019,0,5987
33874,2714,33890,140901,0,7697,33904,128138,0,6010
33904,1242,33920,140919,0,7607,33934,128150,0,6078
33934,2752,33950,140970,8,7820,33964,128127,0,6118
33964,1283,33980,141028,35,7705,33994,128152,5,6146
33994,2763,34010,141068,15,7822,34024,128247,0,6157
34024,1259,34041,141123,29,7650,34055,128263,21,6164
34055,3387,34071,141208,0,7784,34085,128360,2,6176
34085,690,34101,141334,7,7717,34115,128478,0,6220
34115,3431,34131,141294,0,7865,34145,128367,0,6216
34145,717,34161,140630,22,7764,34175,128042,0,6191
34175,3392,34191,140110,31,7790,34205,127826,12,6152
34205,660,34217,139946,27,7656,34230,127755,17,6154
34230,402,34242,139951,48,7647,34255,127858,27,6127
34255,3396,34267,140083,15,7796,34281,127969,13,6093
34281,2998,34297,140277,0,7750,34311,128069,1,6135
34311,912,34327,140416,4,7840,34341,128247,0,6097
34341,3025,34357,140511,0,7736,34371,128258,0,6154
34371,867,34383,140506,9,7722,34396,128126,0,6157
34396,4092,34408,140451,38,7802,34421,128091,9,6128
34421,3023,34433,140377,25,7825,34446,128085,6,6173
34446,241,34458,140350,5,7742,34471,128155,29,6156
34471,929,34483,140378,13,7823,34496,128287,20,6128
34496,4095,34508,140441,4,7864,34522,128490,0,6128
34522,2507,34539,140572,6,7724,34552,128592,0,6164
34552,1435,34564,140686,27,7791,34577,128684,0,6167
34577,4095,34589,140799,48,7846,34602,128699,0,6164
34602,2512,34614,140870,5,7888,34627,128679,0,6228
34627,16,34639,140929,20,7784,34652,128724,9,6235
34652,1472,34664,140976,10,7895,34677,128756,13,6195
34677,4095,34689,140966,0,7893,34702,128790,0,6208
34702,2535,34715,140966,11,7863,34728,128765,9,6209
34728,0,34740,140971,45,7703,34753,128739,2,6193
34753,2013,34765,140989,43,7866,34778,128775,0,6165
34778,4095,34790,141038,15,7912,34803,128810,0,6200
34803,2000,34815,141087,30,7920,34828,128811,0,6239
34828,37,34840,141201,13,7801,34853,128783,2,6262
34853,2083,34865,141231,10,7895,34878,128671,13,6190
34878,4095,34891,140909,10,7859,34903,128460,14,6186
34903,1953,34916,140405,0,7788,34928,128173,8,6146
34928,0,34941,140070,0,7710,34954,127941,5,6118
34954,2673,34966,139976,5,7846,34979,127826,0,6037
34979,4095,34991,140022,32,7854,35004,127838,0,6091
35004,1413,35016,140149,25,7799,35029,127909,0,6118
35029,106,35041,140311,0,7726,35054,127909,0,6136
35054,2667,35067,140455,2,7805,35079,127940,20,6104
35079,4095,35092,140522,0,7813,35104,127942,0,6143
35104,1332,35117,140587,0,7773,35129,127946,17,6158
35129,38,35142,140488,4,7803,35154,127902,0,6131
35154,2608,35167,140416,12,7885,35180,127879,4,6079
35180,3715,35192,140409,4,7855,35205,127833,0,6107
35205,815,35218,140409,0,7740,35230,127862,44,6112
35230,398,35243,140444,0,7751,35255,127845,31,6129
35255,3285,35268,140554,1,7831,35280,127878,25,6106
35280,3605,35293,140678,0,7886,35305,127943,22,6160
35305,741,35318,140814,3,7796,35330,127944,13,6181
35330,359,35343,140881,10,7879,35355,127959,8,6168
35355,3279,35368,140950,4,7912,35380,127921,2,6113
35380,3583,35394,141000,5,7868,35406,127896,0,6147
35406,288,35419,141060,0,7717,35431,127911,24,6144
35431,833,35444,141055,0,7855,35456,128299,52,6195
35456,4057,35469,141072,0,7907,35481,128442,23,6176
35481,3054,35494,141068,0,7930,35506,128577,16,6268
35506,268,35519,141056,32,7805,35531,128589,15,6286
35531,816,35544,141117,15,7907,35556,128543,9,6264
35556,3995,35570,141248,1,7882,35586,128536,17,6258
35586,257,35600,141346,5,7752,35611,128478,0,6259
35611,795,35625,141191,0,7924,35637,128190,0,6178
35637,4095,35650,140510,0,7927,35662,127889,26,6115
35662,2531,35675,140069,17,7879,35687,127699,63,6144
35687,0,35700,139851,32,7737,35712,127585,29,6150
35712,1341,35725,139886,14,7821,35737,127561,23,6133
35737,4095,35751,140059,6,7791,35767,127659,20,6166
35767,0,35781,140236,0,7688,35797,127678,16,6133
35797,4095,35811,140398,0,7875,35822,127687,0,6122
35822,2513,35836,140423,0,7849,35848,127734,0,6152
35848,0,35861,140345,16,7767,35873,127728,35,6137
35873,1944,35886,140338,23,7864,35898,127713,30,6080
35898,4095,35912,140361,8,7808,35928,127706,0,6156
35928,0,35942,140338,0,7648,35958,127724,0,6117
35958,4095,35972,140424,0,7779,35988,127755,17,6176
35988,0,36002,140537,0,7660,36018,127784,22,6139
36018,4095,36032,140622,20,7725,36043,127822,0,6170
36043,1961,36057,140706,10,7526,36069,127848,0,6171
36069,39,36083,140790,12,7472,36099,127864,0,6083
36099,4095,36113,140890,0,7505,36129,127825,0,6155
36129,25,36143,141015,0,7430,36159,127823,0,6108
36159,4095,36173,141039,0,7522,36189,127864,16,6189
36189,0,36203,141034,32,7432,36219,127900,15,6128
36219,4095,36233,141021,18,7449,36249,127902,18,6172
36249,0,36264,141079,0,7337,36279,127950,18,6086
36279,4071,36294,141111,0,7430,36310,128003,0,6136
36310,333,36324,141328,0,7478,36340,128063,0,6070
36340,3603,36354,141433,14,7574,36370,128106,0,6152
36370,316,36384,141219,19,7577,36400,127897,0,6060
36400,3569,36415,140505,23,7573,36430,127515,9,6085
36430,288,36445,140005,0,7513,36460,127306,20,5966
36460,3552,36475,139873,0,7570,36490,127322,1,6007
36490,277,36505,139958,6,7647,36521,127382,5,5890
36521,3062,36535,140164,20,7700,36551,127457,5,5952
36551,751,36565,140234,26,7705,36581,127450,0,5884
36581,3065,36596,140290,5,7659,36611,127541,0,6024
36611,720,36626,140309,0,7667,36641,127593,0,5966
36641,3039,36656,140329,0,7703,36671,127616,24,6051
36671,717,36686,140317,5,7768,36701,127687,20,5983
36701,3036,36716,140299,17,7716,36732,127688,16,6060
36732,1283,36746,140333,8,7737,36762,127714,15,6000
36762,2544,36777,140413,0,7606,36792,127774,0,6104
36792,1264,36807,140526,0,7681,36822,127869,0,6086
36822,2543,36837,140672,0,7624,36852,127948,0,6184
36852,1251,36867,140781,13,7702,36882,128012,18,6154
36882,2540,36897,140849,17,7537,36912,128039,13,6211
36912,1258,36928,140881,17,7576,36942,128090,12,6174
36942,2569,36958,140904,6,7386,36973,128114,2,6193
36973,1858,36988,140930,0,7540,37003,128165,1,6161
37003,1999,37018,140978,0,7442,37033,128148,0,6201
37033,1856,37048,141066,6,7618,37063,128178,0,6184
37063,1995,37078,141131,13,7457,37093,128234,0,6228
37093,1850,37109,141202,0,7568,37123,128284,27,6200
37123,2021,37139,141293,0,7413,37153,128313,17,6190
37153,1879,37169,141058,0,7665,37184,128039,10,6092
37184,1403,37199,140408,8,7510,37214,127706,0,6050
37214,2480,37229,139985,27,7693,37244,127492,0,5982
37244,1421,37259,139892,19,7516,37274,127520,0,6014
37274,2496,37290,139979,0,7645,37304,127587,0,5999
37304,1432,37320,140133,0,7525,37334,127626,7,6008
37334,2518,37350,140288,0,7763,37364,127686,32,5991
37364,1483,37380,140395,29,7670,37394,127763,9,6007
37394,2551,37410,140469,22,7813,37425,127778,2,5994
37425,807,37441,140442,8,7660,37455,127859,0,6018
37455,3199,37471,140388,0,7782,37485,127912,0,6043
37485,818,37501,140372,0,7711,37515,127960,0,6100
37515,3229,37531,140444,0,7879,37545,128004,12,6129
37545,881,37561,140585,30,7797,37575,128068,11,6169
37575,3248,37591,140738,34,7899,37605,128153,17,6190
37605,829,37617,140822,16,7803,37631,128290,28,6208
37631,752,37647,140931,16,7850,37661,128299,0,6140
37661,3104,37677,141018,3,7843,37691,128388,0,6239
37691,781,37707,141107,28,7954,37721,128434,0,6222
37721,3143,37737,141117,42,7869,37751,128506,0,6322
37751,784,37767,141120,16,7918,37781,128566,15,6280
37781,3093,37793,141152,23,7893,37806,128575,23,6318
37806,297,37818,141221,41,7794,37831,128684,18,6321
37831,775,37843,141246,17,7868,37857,128770,27,6299
37857,4095,37873,141380,0,7995,37887,128829,0,6321
37887,31,37903,141516,5,7950,37917,128995,0,6322
37917,4095,37933,141608,16,7959,37947,129037,0,6373
37947,0,37959,141238,0,7798,37972,128770,0,6361
37972,1299,37984,140637,24,7858,37997,128546,25,6282
37997,4095,38009,140210,28,7901,38022,128340,18,6250
38022,2626,38034,140057,5,7938,38047,128334,13,6274
38047,26,38059,140111,8,7802,38073,128486,11,6263
38073,1920,38089,140297,11,7936,38103,128611,0,6224
38103,2039,38120,140484,17,7805,38133,128721,0,6289
38133,1904,38145,140627,12,7898,38158,128754,0,6235
38158,4095,38170,140745,53,7922,38183,128788,5,6303
38183,2046,38195,140744,6,7958,38208,128741,0,6329
38208,15,38220,140660,26,7858,38233,128854,17,6338
38233,1968,38245,140573,7,7978,38258,128899,16,6270
38258,4095,38270,140550,0,7961,38283,129007,24,6301
38283,2096,38296,140535,22,7929,38309,129092,1,6317
38309,5,38321,140591,33,7788,38334,129152,7,6296
38334,2547,38346,140693,50,7939,38359,129257,0,6286
38359,4095,38371,140843,24,7984,38384,129303,0,6341
38384,1474,38396,140963,23,7962,38409,129343,0,6383
38409,77,38421,141068,10,7914,38434,129354,0,6411
38434,2601,38446,141136,20,8000,38459,129416,21,6354
38459,4095,38472,141164,8,7949,38484,129603,5,6395
38484,1440,38497,141179,0,7892,38509,129618,5,6400
38509,11,38522,141187,0,7863,38535,129525,1,6394
38535,3249,38547,141199,12,8017,38560,129529,0,6346
38560,3735,38572,141214,12,8027,38585,129658,3,6401
38585,862,38597,141249,12,7942,38610,129589,0,6415
38610,385,38622,141317,18,7924,38635,129477,0,6436
38635,3265,38648,141429,0,7982,38660,129593,24,6383
38660,3664,38673,141521,0,7972,38685,129524,21,6443
38685,788,38698,141326,0,7891,38710,129278,20,6385
38710,321,38723,140738,0,7969,38735,128977,10,6353
38735,3198,38748,140285,10,7993,38761,128613,3,6228
38761,3184,38773,140156,14,7968,38786,128468,6,6239
38786,359,38798,140173,3,7844,38811,128485,0,6264
38811,815,38824,140331,7,7902,38836,128520,29,6286
38836,3975,38849,140486,0,7950,38861,128549,14,6264
38861,3102,38874,140669,0,7997,38886,128614,21,6304
38886,283,38899,140823,0,7907,38911,128633,16,6314
38911,784,38924,140848,1,8021,38936,128625,11,6294
38936,3960,38949,140788,22,8007,38961,128574,1,6262
38961,3085,38975,140696,15,7989,38987,128504,20,6274
38987,0,39000,140678,4,7824,39012,128454,34,6283
39012,1345,39025,140626,0,7968,39037,128387,56,6242
39037,4095,39050,140676,0,8015,39062,128338,29,6263
39062,2557,39075,140770,0,8044,39087,128324,10,6306
39087,0,39100,140841,37,7914,39112,128377,20,6322
39112,1323,39125,140991,25,8043,39137,128356,0,6285
39137,4095,39151,141168,4,7999,39162,128330,0,6273
39162,2531,39176,141340,0,7961,39187,128319,0,6298
39187,0,39201,141431,0,7880,39213,128297,22,6270
39213,1943,39226,141366,0,8070,39238,128279,42,6233
39238,4095,39251,141360,0,8059,39263,128224,50,6275
39263,2010,39276,141315,10,8032,39293,128148,4,6321
39293,1929,39306,141335,5,8045,39318,128123,24,6264
39318,4095,39332,141445,0,8007,39348,128119,19,6320
39348,0,39362,141523,0,7903,39378,128098,16,6248
39378,4095,39392,141701,1,8073,39403,128064,0,6276
39403,1977,39417,141547,4,7980,39429,127902,4,6267
39429,37,39442,140884,10,7994,39454,127597,48,6206
39454,2549,39467,140379,4,8012,39479,127346,60,6131
39479,4095,39493,140149,0,7950,39509,127268,0,6184
39509,29,39523,140128,3,7833,39539,127383,13,6150
39539,3990,39553,140302,0,7925,39569,127560,18,6229
39569,254,39583,140489,0,7899,39599,127707,30,6172
39599,3776,39613,140526,18,7905,39624,127849,0,6230
39624,1443,39638,140563,5,7711,39650,128029,12,6212
39650,541,39664,140566,0,7709,39680,128149,2,6160
39680,3374,39694,140539,0,7680,39710,128468,0,6254
39710,541,39724,140555,0,7646,39740,128768,10,6242
39740,3344,39754,140524,0,7656,39770,129032,0,6331
39770,538,39784,140531,6,7601,39800,129212,24,6282
39800,3317,39814,140578,26,7564,39830,129172,23,6318
39830,528,39845,140713,0,7462,39861,129279,13,6265
39861,2935,39875,140860,0,7497,39891,129411,3,6304
39891,949,39905,141077,0,7594,39921,129486,0,6247
39921,2916,39935,141132,11,7630,39951,129342,0,6321
39951,943,39965,141113,28,7677,39981,129244,0,6241
39981,2883,39996,141115,13,7653,40011,129131,14,6285
40011,925,40026,141128,0,7690,40041,129134,21,6207
40041,2879,40056,141172,0,7698,40071,129210,29,6253
40071,917,40086,141225,0,7827,40102,129173,7,6149
40102,2449,40116,141355,5,7822,40132,129245,0,6214
40132,1392,40146,141303,8,7869,40162,129120,0,6125
40162,2439,40177,140722,10,7762,40192,128738,0,6171
40192,1389,40207,140178,0,7778,40222,128387,0,6072
40222,2412,40237,139959,0,7752,40252,128272,15,6115
40252,1371,40267,140019,10,7863,40282,128268,12,6065
40282,2411,40297,140131,23,7781,40313,128351,24,6113
40313,1909,40327,140253,21,7832,40343,128429,0,6080
40343,1937,40358,140306,4,7664,40373,128504,0,6147
40373,1893,40388,140344,0,7762,40403,128593,0,6152
40403,1947,40418,140388,0,7684,40433,128673,0,6220
40433,1885,40448,140340,14,7777,40463,128779,12,6231
40463,1935,40478,140336,24,7623,40493,128863,18,6236
40493,1901,40509,140338,18,7669,40523,128864,1,6221
40523,1935,40539,140393,0,7445,40554,128950,12,6229
40554,2438,40569,140505,0,7638,40584,129070,0,6220
40584,1409,40599,140662,4,7514,40614,129218,0,6261
40614,2429,40629,140752,25,7702,40644,129307,1,6292
40644,1398,40659,140826,14,7511,40674,129344,15,6289
40674,2441,40690,140861,0,7640,40704,129333,3,6275
40704,1419,40720,140850,0,7469,40734,129389,9,6261
40734,2480,40750,140870,0,7704,40765,129448,9,6232
40765,898,40780,140930,0,7626,40795,129469,8,6210
40795,2967,40810,140971,27,7815,40825,129456,0,6195
40825,883,40840,141071,6,7677,40855,129534,0,6230
40855,2973,40871,141112,0,7794,40885,129559,4,6210
40885,912,40901,140720,0,7670,40915,129184,20,6149
40915,3024,40931,140150,0,7845,40945,128824,20,6061
40945,942,40961,139910,10,7733,40976,128649,19,6006
40976,3472,40991,139884,36,7860,41006,128675,6,5986
41006,496,41022,139990,0,7729,41036,128844,0,5971
41036,3472,41052,140094,17,7819,41066,128906,0,6052
41066,496,41082,140143,0,7803,41096,128955,0,6058
41096,3521,41112,140231,0,7932,41126,129049,13,6115
41126,551,41142,140287,26,7871,41156,129017,2,6112
41156,3557,41172,140243,31,7916,41186,129040,9,6142
41186,531,41198,140187,26,7797,41212,129170,2,6143
41212,1447,41228,140210,24,7890,41242,129195,1,6103
41242,2410,41258,140275,4,7843,41272,129327,0,6191
41272,1493,41288,140396,9,7987,41302,129485,0,6218
41302,2439,41318,140518,29,7894,41332,129646,0,6282
41332,1487,41348,140627,21,7973,41362,129677,22,6270
41362,2394,41374,140687,22,7928,41387,129759,23,6282
41387,271,41399,140714,49,7828,41412,129873,12,6291
41412,1485,41424,140743,31,7968,41438,129950,0,6232
41438,4049,41454,140775,0,8031,41468,129960,10,6284
41468,225,41484,140836,21,8034,41498,130117,0,6264
41498,4055,41514,140843,2,8022,41528,130282,0,6340
41528,190,41540,140870,0,7871,41553,130263,0,6368
41553,1996,41565,140947,31,7981,41578,130392,14,6313
41578,4023,41590,141028,36,8006,41603,130517,23,6351
41603,1945,41615,141115,0,8049,41628,130654,6,6363
41628,251,41640,140862,14,7940,41654,130559,0,6304
41654,2571,41670,140266,6,8011,41684,130326,0,6229
41684,1392,41701,139908,8,7838,41714,130167,0,6236
41714,2511,41726,139835,39,7928,41739,130174,0,6202
41739,3748,41751,139903,47,7929,41764,130185,3,6266
41764,1387,41776,140034,4,7947,41789,130244,12,6263
41789,358,41801,140146,20,7915,41814,130373,12,6265
41814,2611,41826,140237,0,8010,41839,130529,12,6223
41839,3853,41851,140298,0,7982,41865,130710,19,6261
41865,903,41877,140307,9,7915,41890,130661,0,6261
41890,631,41902,140286,23,7860,41915,130723,0,6263
41915,3070,41927,140238,43,7956,41940,130741,0,6227
41940,3307,41952,140214,22,8021,41965,130818,0,6291
41965,936,41977,140234,20,7936,41990,130856,0,6320
41990,695,42002,140302,14,7973,42015,130934,10,6321
42015,3136,42027,140406,5,8014,42040,131042,32,6295
42040,3314,42053,140500,9,7969,42065,130838,15,6345
42065,876,42078,140596,0,7862,42091,130955,3,6360
42091,1067,42103,140671,30,7965,42116,131028,5,6345
42116,3571,42128,140725,21,8044,42141,131133,0,6325
42141,2889,42153,140753,11,8051,42166,131195,0,6381
42166,564,42178,140762,19,7950,42191,131253,0,6420
42191,1110,42203,140786,0,8011,42216,131263,0,6424
42216,3583,42229,140780,0,7985,42241,131362,10,6402
42241,2832,42254,140788,0,7997,42266,131432,18,6440
42266,493,42279,140857,0,7918,42291,131471,4,6437
42291,1058,42304,140902,0,8057,42317,131539,4,6414
42317,4048,42329,141043,7,8067,42342,131594,7,6407
42342,2435,42354,141122,13,8065,42367,131704,0,6468
42367,320,42380,140970,1,7918,42392,131648,38,6461
42392,1556,42405,140485,3,7977,42417,131412,6,6397
42417,3915,42430,140075,0,7956,42442,131145,20,6361
42442,2365,42455,139908,0,7985,42467,130995,13,6353
42467,240,42480,139893,12,7902,42492,131000,19,6364
42492,1524,42505,139951,24,8035,42517,131105,0,6341
42517,3911,42530,140078,3,8015,42543,131184,1,6351
42543,1948,42556,140296,0,7949,42568,131259,31,6360
42568,203,42581,140374,11,7848,42593,131307,66,6379
42593,2032,42606,140417,0,7992,42618,131316,32,6363
42618,4012,42631,140407,0,8041,42643,131349,22,6410
42643,1871,42656,140352,0,8004,42668,131362,32,6437
42668,203,42681,140215,22,7966,42693,131406,9,6423
42693,2003,42706,140222,12,8008,42718,131430,0,6381
42718,3957,42732,140288,1,7990,42743,131432,0,6424
42743,1866,42757,140481,1,7923,42769,131475,17,6444
42769,351,42782,140495,0,7933,42794,131519,39,6432
42794,2576,42807,140597,0,8056,42819,131592,69,6398
42819,3696,42832,140665,0,8072,42844,131614,29,6460
42844,1329,42857,140681,2,7992,42869,131597,7,6480
42869,320,42882,140742,14,7991,42894,131552,26,6496
42894,2559,42908,140816,0,8004,42924,131633,21,6491
42924,1347,42938,140861,0,7925,42949,131587,0,6492
42949,317,42963,140945,0,8011,42974,131577,0,6481
42974,2541,42988,140908,0,8090,43000,131569,16,6404
43000,3255,43013,140868,8,8088,43025,131578,42,6461
43025,853,43038,140900,18,7974,43050,131587,36,6477
43050,656,43064,141012,13,8021,43080,131611,3,6461
43080,3231,43094,141127,1,8009,43110,131608,5,6503
43110,651,43124,140797,0,8013,43140,131407,16,6428
43140,3223,43154,140258,0,8007,43170,131076,17,6395
43170,646,43184,139948,16,7966,43195,130931,0,6352
43195,3053,43209,139868,38,7913,43221,130868,16,6275
43221,2781,43235,139892,15,7853,43251,130848,1,6334
43251,1075,43265,140115,0,7756,43281,130933,0,6283
43281,2781,43295,140257,0,7755,43311,131035,0,6372
43311,1066,43325,140377,0,7756,43341,131156,7,6350
43341,2771,43355,140396,16,7705,43371,131174,22,6392
43371,1047,43385,140295,15,7642,43396,131148,0,6364
43396,3517,43411,140243,15,7570,43427,131154,0,6362
43427,249,43441,140222,0,7328,43457,131182,3,6301
43457,3919,43471,140337,0,7517,43487,131221,0,6337
43487,225,43501,140464,0,7418,43517,131334,0,6341
43517,3902,43531,140535,19,7606,43547,131426,0,6400
43547,209,43561,140609,15,7467,43577,131513,4,6352
43577,3861,43592,140683,3,7577,43607,131545,30,6384
43607,198,43622,140725,3,7488,43637,131563,0,6314
43637,3862,43652,140760,0,7727,43668,131618,0,6351
43668,207,43682,140872,0,7681,43698,131638,0,6262
43698,3952,43712,140851,32,7807,43728,131644,0,6332
43728,163,43742,140860,26,7740,43758,131637,0,6281
43758,3927,43773,140877,0,7798,43788,131634,0,6376
43788,172,43803,140962,0,7787,43818,131657,14,6294
43818,3903,43833,141044,0,7923,43848,131669,23,6364
43848,166,43863,141191,21,7914,43879,131708,23,6274
43879,3649,43893,141084,17,7942,43909,131557,0,6326
43909,336,43924,140434,22,7852,43939,131185,5,6193
43939,3632,43954,139920,0,7789,43969,130910,0,6271
43969,330,43984,139753,0,7783,43999,130821,0,6204
43999,3603,44014,139811,0,7801,44029,130832,13,6288
44029,308,44044,139981,23,7791,44059,130840,22,6224
44059,3606,44074,140052,24,7733,44089,130819,24,6293
44089,322,44105,140063,0,7643,44120,130878,0,6222
44120,3174,44135,140117,0,7634,44150,130920,0,6298
44150,663,44165,140117,0,7650,44180,130990,0,6264
44180,3152,44195,140122,0,7639,44210,131082,0,6355
44210,651,44225,140097,3,7633,44240,131162,0,6279
44240,3167,44256,140146,9,7578,44270,131177,21,6349
44270,650,44286,140204,0,7548,44300,131167,19,6263
44300,3195,44316,140292,0,7528,44331,131242,12,6318
44331,1097,44346,140421,6,7680,44361,131327,0,6223
44361,2734,44376,140551,16,7655,44391,131361,0,6310
44391,1072,44406,140615,18,7727,44421,131434,0,6259
44421,2727,44437,140632,0,7639,44451,131560,0,6342
44451,1075,44467,140641,0,7742,44481,131549,16,6246
44481,2771,44497,140687,0,7718,44511,131589,10,6305
44511,1130,44527,140757,0,7872,44541,131646,25,6214
44541,2800,44557,140836,12,7793,44572,131639,4,6251
44572,1554,44587,140872,14,7877,44602,131662,1,6213
44602,2255,44618,140959,1,7760,44632,131816,0,6310
44632,1570,44648,141008,0,7870,44662,131803,0,6285
44662,2275,44678,141130,0,7823,44692,131859,6,6380
44692,1616,44708,141185,20,7985,44722,131792,18,6352
44722,2293,44738,140587,17,7836,44752,131441,16,6324
44752,1616,44769,139979,26,7869,44783,131054,4,6235
44783,1791,44799,139711,15,7680,44813,130890,1,6231
44813,2081,44829,139698,0,7834,44843,130850,0,6248
44843,1813,44859,139856,1,7783,44873,130890,4,6308
44873,2147,44889,140002,31,7906,44903,130854,0,6330
44903,1823,44919,140046,34,7769,44933,130849,31,6355
44933,2112,44950,140068,16,7850,44963,130862,21,6341
44963,1801,44975,140116,39,7854,44988,130968,20,6355
44988,226,45000,140104,52,7757,45014,131018,0,6353
45014,2677,45030,140073,0,7947,45044,131052,0,6350
45044,1294,45060,140119,12,7841,45074,131092,0,6369
45074,2685,45090,140157,3,7926,45104,131075,0,6406
45104,1253,45116,140235,0,7868,45129,131017,0,6423
45129,373,45141,140332,16,7778,45154,131145,4,6440
45154,2681,45166,140432,15,7930,45179,131228,26,6396
45179,3659,45191,140517,0,7979,45204,131364,8,6447
45204,1296,45216,140591,7,7941,45230,131471,7,6435
45230,758,45246,140642,3,7979,45260,131449,0,6393
45260,3217,45277,140642,10,7887,45290,131452,0,6447
45290,715,45302,140693,21,7842,45315,131494,0,6487
45315,3197,45327,140693,46,7924,45340,131512,0,6472
45340,3199,45352,140739,25,7982,45365,131489,4,6511
45365,816,45377,140792,10,7941,45390,131519,18,6520
45390,787,45402,140857,19,7961,45415,131586,12,6517
45415,3267,45427,140940,10,8002,45441,131711,13,6476
45441,2711,45458,141004,0,7866,45471,131630,0,6513
45471,1157,45483,141083,43,7933,45496,131646,0,6507
45496,3666,45508,141170,36,7984,45521,131697,0,6498
45521,2763,45533,141244,18,8035,45546,131773,10,6583
45546,489,45558,141295,17,7935,45571,131675,0,6581
45571,1219,45583,140842,20,7995,45596,131408,18,6508
45596,3771,45608,140252,11,7965,45621,131152,15,6438
45621,2746,45634,139851,0,7880,45646,131041,0,6426
45646,412,45659,139740,0,7757,45672,130946,13,6392
45672,1666,45684,139810,24,7881,45697,130913,0,6359
45697,4017,45709,139925,24,7934,45722,130967,1,6383
45722,2318,45734,140054,9,7953,45747,131012,0,6410
45747,291,45759,140126,14,7817,45772,131073,9,6457
45772,1713,45785,140186,10,7926,45797,131178,22,6445
45797,4027,45810,140211,0,7886,45822,131193,12,6453
45822,2238,45835,140222,0,7888,45847,131216,2,6477
45847,209,45860,140201,0,7837,45872,131249,1,6474
45872,1664,45885,140139,0,7967,45898,131286,8,6441
45898,4090,45910,140179,10,7969,45923,131368,4,6465
45923,1824,45935,140244,7,7939,45948,131412,0,6496
45948,263,45961,140289,0,7832,45973,131537,43,6528
45973,2167,45986,140414,14,7909,45998,131603,9,6514
45998,3936,46011,140498,0,7926,46023,131664,25,6562
46023,1729,46036,140590,4,7944,46048,131756,11,6587
46048,205,46061,140669,0,7916,46073,131780,10,6594
46073,2163,46086,140670,17,7994,46098,131814,0,6545
46098,3911,46111,140711,27,7966,46124,131905,6,6598
46124,1247,46137,140792,0,7887,46149,131998,34,6594
46149,428,46162,140795,0,7873,46174,132010,73,6622
46174,2723,46187,140817,0,7971,46199,132093,19,6607
46199,3582,46212,140860,0,8001,46224,132107,30,6667
46224,1200,46237,140897,0,7942,46249,132142,24,6684
46249,402,46262,140893,19,7967,46274,132239,7,6708
46274,2719,46287,140986,8,7989,46299,132410,9,6663
46299,3559,46313,141137,0,7974,46324,132516,0,6715
46324,1173,46338,141294,0,7863,46350,132493,13,6721
46350,771,46363,141287,0,7970,46375,132566,24,6729
46375,3234,46388,141384,0,8044,46400,132691,50,6721
46400,3121,46413,141328,20,8051,46425,132648,27,6771
46425,719,46438,140718,21,7916,46450,132444,20,6745
46450,767,46464,140194,20,7954,46480,132147,10,6628
46480,3098,46494,139890,0,7899,46510,131917,7,6651
46510,759,46524,139950,0,7912,46535,131887,0,6628
46535,3199,46549,140112,0,7963,46561,131937,0,6573
46561,2703,46574,140183,0,7975,46586,132000,26,6623
46586,389,46599,140279,26,7888,46611,132058,46,6646
46611,1199,46624,140399,20,7973,46636,132164,32,6650
46636,3696,46650,140519,3,7937,46666,132213,0,6703
46666,365,46680,140530,1,7796,46696,132250,0,6713
46696,3675,46710,140545,0,7945,46726,132336,23,6722
46726,354,46740,140470,0,7828,46756,132353,13,6669
46756,3659,46770,140471,35,7918,46782,132321,5,6679
46782,2179,46795,140430,13,7809,46807,132392,40,6699
46807,186,46821,140597,5,7630,46837,132487,0,6677
46837,3984,46851,140745,0,7712,46867,132570,0,6746
46867,194,46881,140966,0,7594,46897,132609,4,6744
46897,3945,46911,141086,0,7675,46927,132589,7,6783
46927,185,46941,141085,12,7542,46957,132564,19,6734
46957,3947,46972,141081,13,7567,46987,132539,16,6772
46987,183,47002,141095,21,7393,47018,132452,3,6677
47018,3924,47032,141165,0,7518,47048,132417,0,6724
47048,229,47062,141237,0,7508,47078,132414,0,6659
47078,3895,47092,141297,1,7622,47108,132388,0,6754
47108,208,47122,141342,18,7587,47138,132337,3,6690
47138,3853,47153,141467,10,7663,47168,132319,10,6739
47168,192,47183,141554,0,7634,47198,132274,24,6638
47198,3821,47213,141036,0,7747,47228,131916,6,6628
47228,190,47243,140377,0,7759,47259,131550,0,6416
47259,3519,47273,140095,27,7795,47289,131364,19,6484
47289,419,47303,140100,10,7789,47319,131302,0,6393
47319,3475,47334,140260,0,7776,47349,131363,0,6522
47349,432,47364,140463,0,7797,47379,131478,15,6445
47379,3427,47394,140621,0,7894,47409,131491,11,6552
47409,414,47424,140768,9,7914,47439,131513,8,6468
47439,3423,47454,140764,15,7918,47470,131408,9,6538
47470,805,47485,140667,6,7883,47500,131418,0,6467
47500,2999,47515,140588,2,7836,47530,131422,0,6603
47530,801,47545,140566,0,7840,47560,131421,0,6592
47560,3012,47575,140667,0,7842,47590,131454,0,6690
47590,771,47605,140820,21,7866,47620,131480,18,6639
47620,2996,47635,140979,3,7743,47650,131535,8,6697
47650,806,47666,141133,0,7700,47681,131579,22,6645
47681,2577,47696,141184,0,7603,47711,131580,0,6688
47711,1243,47726,141264,0,7726,47741,131567,0,6657
47741,2551,47756,141304,0,7660,47771,131602,0,6723
47771,1249,47786,141307,21,7763,47801,131585,0,6667
47801,2547,47817,141277,8,7628,47831,131577,17,6724
47831,1258,47847,141328,0,7684,47861,131567,22,6649
47861,2566,47877,141366,0,7625,47891,131594,21,6682
47891,1291,47907,141452,0,7836,47922,131580,2,6584
47922,2075,47937,141639,17,7763,47952,131647,0,6624
47952,1760,47967,141576,9,7896,47982,131433,0,6527
47982,2066,47998,140766,14,7737,48012,131106,3,6537
48012,1777,48028,140203,0,7817,48042,130762,0,6429
48042,2096,48058,140030,0,7719,48072,130603,21,6444
48072,1805,48088,140115,4,7908,48102,130580,16,6401
48102,2126,48118,140294,9,7818,48133,130670,4,6413
48133,2288,48148,140443,25,7937,48163,130729,6,6392
48163,1557,48179,140479,23,7758,48193,130854,0,6442
48193,2317,48209,140539,0,7921,48223,130869,0,6495
48223,1586,48239,140543,9,7863,48253,130880,0,6538
48253,2355,48269,140524,20,8011,48283,130867,17,6577
48283,1601,48299,140517,34,7874,48313,130884,37,6579
48313,2347,48330,140508,25,7981,48343,130851,4,6593
48343,1567,48355,140581,50,7945,48369,131027,11,6608
48369,497,48385,140693,0,7985,48399,131140,6,6572
48399,3433,48415,140854,0,8036,48429,131260,0,6661
48429,528,48445,140995,24,8068,48459,131325,0,6663
48459,3458,48475,141077,16,8036,48489,131360,4,6728
48489,528,48506,141107,17,8041,48519,131330,15,6696
48519,3421,48531,141137,28,8006,48544,131375,8,6742
48544,1035,48556,141147,29,7987,48570,131470,14,6751
48570,912,48586,141142,0,8085,48600,131429,2,6659
48600,3026,48616,141235,0,8052,48630,131511,0,6734
48630,942,48646,141294,0,8102,48660,131522,0,6718
48660,2967,48677,141349,0,7986,48690,131476,0,6789
48690,897,48702,141455,25,7995,48715,131510,12,6787
48715,3429,48727,141467,16,8081,48740,131409,20,6734
48740,2979,48752,140993,10,8096,48765,131088,19,6698
48765,655,48777,140431,17,7990,48790,130827,16,6629
48790,988,48802,140103,10,8009,48816,130640,8,6560
48816,3838,48832,140004,11,8012,48846,130517,18,6547
48846,310,48858,140074,9,7872,48871,130445,0,6536
48871,1383,48883,140197,53,7972,48896,130538,0,6547
48896,3845,48908,140305,23,8056,48921,130536,0,6563
48921,2523,48933,140367,17,8067,48946,130498,11,6564
48946,357,48958,140420,19,7951,48971,130548,31,6557
48971,1458,48983,140467,17,8043,48996,130653,10,6520
48996,3911,49009,140472,0,8042,49022,130606,0,6523
49022,1995,49034,140446,32,7992,49047,130638,0,6520
49047,192,49059,140421,45,7870,49072,130682,0,6522
49072,1911,49084,140408,18,8048,49097,130623,0,6494
49097,4095,49109,140481,24,8069,49122,130584,1,6524
49122,2064,49134,140556,0,8081,49147,130612,0,6577
49147,261,49159,140644,0,7960,49172,130682,27,6568
49172,1954,49185,140767,0,8032,49197,130815,16,6520
49197,4007,49210,140848,0,8039,49222,130854,0,6557
49222,1998,49235,140910,0,8029,49248,130826,7,6543
49248,333,49260,140991,19,7995,49273,130819,0,6556
49273,2480,49285,141019,25,8108,49298,130862,4,6490
49298,3899,49310,141018,18,8120,49323,130922,0,6567
49323,1543,49335,141041,7,8030,49348,130912,5,6592
49348,346,49361,141070,0,7975,49373,131024,34,6598
49373,2461,49386,141077,0,8064,49398,131120,3,6584
49398,3773,49411,141150,0,8090,49423,131154,16,6605
49423,1454,49436,141210,0,8059,49448,131129,14,6606
49448,304,49461,141283,15,8043,49474,131224,6,6605
49474,3077,49486,141413,22,8130,49499,131307,7,6546
49499,3417,49512,141313,0,8104,49524,131112,58,6572
49524,963,49537,140713,0,7938,49549,130713,26,6519
49549,597,49562,140242,0,7958,49574,130410,16,6489
49574,3007,49587,140009,0,8032,49599,130234,11,6409
49599,3320,49612,139971,0,8048,49624,130194,21,6449
49624,914,49637,140028,9,7963,49649,130234,0,6443
49649,585,49662,140115,15,8012,49674,130337,0,6440
49674,2997,49688,140257,3,8031,49700,130381,8,6381
49700,2905,49713,140370,0,7987,49725,130468,35,6439
49725,528,49738,140411,0,7899,49750,130556,30,6439
49750,1008,49763,140452,0,8054,49775,130577,23,6468
49775,3478,49788,140416,0,8081,49800,130599,11,6449
49800,2861,49813,140307,7,8081,49825,130659,11,6492
49825,511,49838,140305,24,7945,49850,130660,2,6473
49850,992,49864,140356,4,8024,49875,130666,0,6470
49875,3461,49889,140539,0,8013,49901,130690,0,6429
49901,2403,49914,140534,0,8038,49926,130775,28,6464
49926,271,49939,140630,0,7973,49951,130857,41,6478
49951,1488,49964,140720,3,8105,49976,130944,41,6475
49976,3862,49989,140738,12,8104,50001,130965,25,6495
50001,2373,50014,140829,0,8067,50026,131046,17,6560
50026,261,50040,140941,11,7929,50056,131178,9,6528
50056,3879,50070,140984,0,8055,50086,131305,14,6571
50086,257,50100,141070,0,8005,50111,131414,0,6582
50111,1462,50125,141034,0,8132,50137,131470,6,6544
50137,3988,50150,140976,28,8119,50162,131490,24,6537
50162,1891,50175,141011,10,8059,50187,131548,56,6582
50187,202,50201,141116,20,7974,50217,131491,0,6568
50217,3968,50231,141259,0,8058,50247,131537,0,6640
50247,195,50261,141416,0,7956,50277,131529,23,6587
50277,3939,50291,141271,1,8061,50307,131216,20,6550
50307,179,50321,140571,14,7929,50332,130785,0,6485
50332,1983,50346,140141,4,7906,50358,130379,6,6359
50358,3683,50372,139959,28,7826,50388,130117,0,6349
50388,339,50402,140048,0,7684,50418,129972,0,6312
50418,3696,50432,140284,0,7747,50448,129906,0,6383
50448,338,50462,140510,0,7688,50478,129785,0,6333
50478,3651,50492,140597,14,7711,50508,129609,10,6361
50508,320,50522,140671,20,7617,50538,129304,28,6255
50538,3629,50553,140654,12,7578,50569,129003,17,6263
50569,667,50583,140584,2,7514,50599,128725,0,6137
50599,3223,50613,140629,0,7642,50629,128490,7,6184
50629,659,50643,140686,0,7670,50659,128399,0,6134
50659,3207,50673,140755,24,7726,50689,128371,0,6220
50689,650,50704,140885,29,7723,50719,128463,4,6154
50719,3197,50734,141033,1,7711,50749,128573,18,6203
50749,643,50764,141127,0,7765,50779,128657,25,6131
50779,3177,50794,141191,0,7847,50810,128746,6,6172
50810,1094,50824,141282,10,7911,50840,128874,0,6078
50840,2759,50854,141227,7,7921,50870,129077,0,6191
50870,1087,50885,141198,0,7930,50900,129128,0,6159
50900,2741,50915,141184,0,7890,50930,129270,2,6245
50930,1069,50945,141257,0,8001,50960,129379,32,6203
50960,2699,50975,141391,0,7994,50990,129510,2,6281
50990,1077,51005,141503,26,8056,51021,129557,6,6200
51021,2288,51035,141153,22,7967,51051,129261,0,6210
51051,1579,51066,140504,0,7939,51081,128796,0,6128
51081,2242,51096,140147,8,7839,51111,128592,0,6197
51111,1558,51126,140120,0,7955,51141,128664,0,6186
51141,2231,51156,140268,0,7864,51171,128782,24,6262
51171,1567,51186,140443,20,7937,51201,128844,26,6229
51201,2245,51217,140549,12,7782,51232,128916,7,6261
51232,2094,51247,140651,0,7806,51262,128967,0,6245
51262,1761,51277,140620,0,7662,51292,128921,0,6285
51292,2096,51307,140577,16,7845,51322,128926,0,6279
51322,1745,51337,140514,8,7686,51352,128955,0,6307
51352,2091,51367,140531,4,7801,51382,128988,9,6294
51382,1744,51398,140585,0,7570,51412,128997,31,6308
51412,2097,51428,140694,3,7724,51442,129097,5,6287
51442,1770,51458,140820,0,7617,51473,129200,9,6282
51473,2654,51488,140929,0,7849,51503,129231,0,6277
51503,1189,51518,141044,19,7723,51533,129227,0,6287
51533,2651,51548,141072,18,7885,51563,129284,0,6302
51563,1175,51579,141087,3,7697,51593,129355,13,6291
51593,2672,51609,141066,0,7905,51623,129386,19,6284
51623,1222,51639,141087,0,7831,51653,129364,24,6249
51653,2735,51669,141146,2,8012,51684,129358,3,6227
51684,725,51699,141240,16,7923,51714,129381,0,6201
51714,3138,51730,141309,24,8023,51744,129548,0,6220
51744,718,51760,141319,0,7864,51774,129371,0,6211
51774,3206,51790,140743,0,8005,51804,128848,0,6185
51804,742,51820,140195,0,7932,51834,128349,23,6106
51834,3255,51850,139991,14,8021,51864,128162,11,6098
51864,752,51880,139979,15,7924,51895,128146,7,6085
51895,3645,51911,140106,9,7987,51925,128300,0,6111
51925,367,51941,140196,7,7922,51955,128401,0,6121
51955,3668,51971,140261,0,8051,51985,128460,0,6208
51985,401,52001,140314,6,8023,52015,128531,0,6232
52015,3744,52031,140361,32,8104,52045,128512,18,6263
52045,401,52061,140334,24,8014,52075,128547,22,6249
52075,3680,52087,140288,32,8034,52100,128562,17,6242
52100,2669,52112,140297,52,8024,52126,128667,9,6278
52126,219,52142,140350,0,8054,52156,128673,2,6248
52156,4021,52172,140459,8,8122,52186,128826,0,6296
52186,257,52202,140616,29,8117,52216,128971,0,6303
52216,4007,52232,140705,10,8103,52246,129003,0,6371
52246,198,52258,140763,9,7949,52271,128959,20,6361
52271,1717,52283,140822,36,8082,52296,128991,31,6326
52296,4013,52308,140830,15,8121,52321,129075,17,6344
52321,2202,52333,140867,0,8137,52347,129192,4,6360
52347,273,52363,140901,0,8166,52377,129172,0,6309
52377,3952,52393,140914,5,8143,52407,129274,0,6381
52407,240,52424,140946,0,8112,52437,129169,0,6361
52437,3921,52449,141007,24,8113,52462,129155,0,6419
52462,1706,52474,141107,37,8107,52487,129268,5,6433
52487,252,52499,141181,0,8055,52512,129392,18,6434
52512,2288,52524,141014,18,8167,52537,129210,29,6329
52537,4045,52549,140495,1,8136,52563,128827,13,6301
52563,1146,52580,140001,18,7985,52593,128371,0,6235
52593,2802,52605,139842,29,7998,52618,128233,0,6179
52618,3529,52630,139817,69,8015,52643,128274,0,6266
52643,1149,52655,139885,37,8009,52668,128376,7,6260
52668,494,52680,139999,22,7997,52693,128378,5,6263
52693,2858,52705,140050,23,8089,52718,128354,17,6241
52718,3612,52730,140088,14,8065,52743,128334,12,6262
52743,1168,52756,140116,7,7966,52768,128429,0,6261
52768,487,52781,140146,0,7948,52794,128406,6,6234
52794,3342,52806,140145,45,8025,52819,128375,0,6190
52819,3070,52831,140124,7,8073,52844,128410,0,6254
52844,707,52856,140124,25,8008,52869,128428,0,6276
52869,906,52881,140154,13,8046,52894,128402,0,6277
52894,3403,52906,140211,0,8063,52919,128386,12,6235
52919,3062,52932,140286,0,8028,52944,128528,29,6305
52944,669,52957,140383,0,7928,52969,128589,5,6282
52969,848,52982,140462,0,8033,52995,128628,1,6289
52995,3811,53007,140562,11,8117,53020,128667,2,6256
53020,2653,53032,140614,21,8105,53045,128712,0,6301
53045,430,53057,140634,20,8006,53070,128722,0,6306
53070,1360,53082,140651,0,8091,53095,128740,0,6323
53095,3825,53108,140687,5,8074,53120,128811,13,6330
53120,2579,53133,140705,0,8079,53145,128851,7,6363
53145,325,53158,140723,0,7975,53170,128888,25,6371
53170,1300,53183,140764,0,8133,53195,128890,8,6331
53195,3751,53208,140807,0,8139,53221,128932,0,6340
53221,2187,53233,140928,14,8128,53246,128973,0,6359
53246,251,53258,141025,3,8005,53271,129074,0,6371
53271,1840,53284,141051,0,8068,53296,128988,19,6331
53296,4023,53309,140713,0,8084,53321,128652,7,6318
53321,2080,53334,140197,0,8065,53346,128284,14,6294
53346,192,53359,139826,6,7965,53371,128031,20,6242
53371,1806,53384,139678,9,8062,53396,127985,11,6196
53396,3975,53409,139654,15,8017,53421,128026,2,6187
53421,2064,53435,139773,32,7985,53447,128088,12,6201
53447,303,53460,139947,10,7885,53472,128140,38,6206
53472,2352,53485,139993,0,7986,53497,128142,73,6168
53497,3839,53510,140038,0,8045,53522,128242,40,6249
53522,1566,53535,140087,0,7998,53547,128263,16,6254
53547,263,53560,140070,11,7991,53572,128226,21,6255
53572,2337,53585,140017,27,8058,53597,128254,15,6206
53597,3835,53611,140025,17,8008,53627,128319,23,6238
53627,259,53641,140083,0,7945,53652,128358,0,6242
53652,2351,53666,140205,0,8018,53678,128387,18,6172
53678,3427,53691,140200,0,8075,53703,128460,46,6235
53703,1028,53716,140272,9,7972,53728,128577,47,6259
53728,535,53741,140348,25,8060,53753,128679,11,6297
53753,2910,53766,140441,10,8071,53778,128771,24,6267
53778,3376,53792,140585,0,8031,53808,128795,14,6336
53808,538,53822,140633,0,8011,53838,128830,19,6257
53838,3373,53852,140752,0,8088,53863,128872,0,6318
53863,1008,53877,140723,0,8000,53889,128951,0,6295
53889,935,53902,140671,17,8106,53914,129019,9,6302
53914,3407,53927,140699,4,8085,53939,129086,76,6284
53939,2941,53953,140747,5,8058,53969,129137,0,6357
53969,929,53983,140878,0,8012,53999,129235,0,6343
53999,2933,54013,141008,0,8041,54029,129317,16,6406
54029,915,54043,141183,0,8065,54059,129420,35,6364
54059,2919,54073,141216,15,8004,54084,129394,0,6378
54084,556,54098,140771,2,7802,54110,129063,21,6308
54110,1379,54124,140177,0,7832,54140,128573,0,6192
54140,2483,54154,139827,0,7700,54170,128384,0,6209
54170,1378,54184,139856,0,7709,54200,128378,3,6196
54200,2480,54214,140010,17,7687,54230,128471,1,6251
54230,1370,54244,140146,0,7680,54260,128657,10,6234
54260,2448,54274,140268,25,7561,54290,128701,6,6235
54290,1377,54305,140369,0,7529,54321,128685,7,6214
54321,2001,54335,140390,0,7458,54351,128669,1,6213
54351,1914,54365,140373,0,7619,54381,128655,0,6167
54381,1985,54395,140329,1,7558,54411,128684,0,6216
54411,1882,54425,140267,16,7693,54441,128660,9,6200
54441,1968,54456,140330,7,7561,54471,128710,3,6221
54471,1882,54486,140429,6,7697,54501,128836,19,6187
54501,1937,54516,140577,0,7631,54531,128950,9,6200
54531,1878,54546,140703,0,7856,54562,128973,0,6150
54562,1441,54576,140837,19,7775,54592,129017,0,6162
54592,2431,54606,140817,0,7917,54622,129070,0,6160
54622,1429,54637,140828,5,7746,54652,129047,0,6213
54652,2423,54667,140819,4,7898,54682,128998,9,6182
54682,1424,54697,140858,0,7827,54712,128963,24,6209
54712,2413,54727,140895,0,8005,54742,128962,10,6189
54742,1422,54757,140998,9,7881,54773,128933,0,6194
54773,2960,54787,141083,23,7996,54803,128984,0,6219
54803,917,54818,141181,1,7780,54833,128929,0,6240
54833,2953,54848,140782,0,7921,54863,128508,0,6223
54863,910,54878,140235,0,7791,54893,128106,0,6202
54893,2960,54908,139934,6,7888,54923,127946,21,6186
54923,899,54938,139918,25,7686,54953,127982,13,6180
54953,2955,54969,140020,4,7747,54984,128131,0,6197
54984,498,54999,140200,7,7559,55014,128234,0,6167
55014,3420,55029,140331,0,7753,55044,128321,2,6197
55044,501,55059,140441,0,7636,55074,128316,0,6205
55074,3446,55089,140467,6,7777,55104,128269,0,6228
55104,473,55119,140362,4,7614,55134,128277,15,6177
55134,3440,55150,140269,0,7685,55164,128228,15,6174
55164,493,55180,140275,1,7599,55194,128266,7,6142
55194,3478,55210,140373,0,7798,55225,128324,0,6144
55225,240,55240,140530,12,7773,55255,128388,0,6089
55255,3823,55270,140678,17,7894,55285,128428,0,6131
55285,226,55301,140796,21,7820,55315,128525,1,6090
55315,3823,55331,140870,5,7877,55345,128532,0,6148
55345,262,55361,140921,0,7881,55375,128519,17,6089
55375,3887,55391,140956,0,8008,55405,128527,23,6114
55405,300,55421,140999,22,8012,55436,128504,15,6019
