135,1040,150,139954,0,5946,165,129912,0,5690
165,2781,180,140002,3,5954,195,129894,3,5825
195,1033,210,140108,0,6006,225,129866,5,5784
225,2749,240,140216,27,5950,255,129921,17,5877
255,1070,270,140260,20,5976,285,130046,30,5809
285,2727,301,140031,5,5827,316,130067,17,5836
316,1627,331,139550,0,5784,346,129804,2,5717
346,2194,361,139199,0,5620,376,129717,2,5753
376,1639,391,139124,8,5691,406,129792,1,5715
406,2171,421,139179,10,5590,436,129857,0,5790
436,1664,451,139249,20,5660,466,129966,14,5743
466,2150,482,139268,1,5520,496,130079,20,5797
496,1716,512,139308,0,5688,526,130109,15,5726
526,2157,542,139359,0,5649,557,130134,5,5734
557,2349,572,139365,0,5788,587,130129,4,5650
587,1491,602,139349,11,5700,617,130161,0,5665
617,2379,633,139378,4,5826,647,130426,0,5668
647,1470,663,139441,0,5689,677,130712,0,5747
677,2432,693,139539,0,5863,707,130939,5,5765
707,1470,723,139687,0,5841,737,131100,26,5826
737,2538,753,139789,0,6009,767,130679,24,5815
767,1475,783,139889,16,5915,798,130669,11,5824
798,3085,814,139934,14,6017,828,130777,0,5843
828,851,844,139987,8,5936,858,130776,0,5887
858,3149,874,140042,0,6074,888,130758,0,5958
888,848,904,140115,3,6058,918,130681,0,5984
918,3211,934,140228,34,6180,948,130728,13,6018
948,831,964,140290,34,6098,978,130898,22,6059
978,3216,995,140369,32,6163,1008,130872,17,6063
1008,779,1020,140448,39,6114,1034,130858,21,6059
1034,966,1050,140262,0,6219,1064,130670,10,5951
1064,2901,1080,139857,4,6124,1094,130491,0,5977
1094,1023,1110,139535,8,6104,1124,130317,0,5910
1124,2887,1140,139390,0,5961,1154,130212,0,5946
1154,1012,1166,139423,5,5955,1179,130082,18,5940
1179,3859,1191,139503,15,5970,1204,130126,25,5930
1204,2832,1216,139565,29,6000,1229,130167,25,5966
1229,310,1241,139616,8,5974,1254,130252,11,5947
1254,1120,1266,139648,0,6058,1280,130254,16,5901
1280,4095,1296,139693,11,6083,1310,130276,0,5925
1310,89,1326,139672,0,6053,1340,130499,0,5912
1340,4095,1352,139648,6,6027,1365,130558,0,5951
1365,2251,1377,139660,41,6031,1390,130492,0,6005
1390,97,1402,139686,8,5980,1415,130456,7,5995
1415,1708,1427,139745,5,6121,1440,130440,24,5973
1440,4095,1452,139849,0,6128,1465,130556,19,5992
1465,2262,1477,139952,24,6148,1490,130731,5,6009
1490,131,1502,140000,0,6045,1516,130790,0,6010
1516,2325,1528,140075,14,6121,1541,130729,0,5950
1541,4035,1553,140122,57,6153,1566,130777,3,6009
1566,1613,1578,140167,25,6203,1591,130742,0,6044
1591,170,1603,140206,19,6154,1616,130713,0,6069
1616,2433,1628,140253,19,6243,1641,130712,0,6021
1641,4095,1653,140290,7,6261,1666,130762,18,6063
1666,1591,1679,140336,0,6229,1691,130864,14,6086
1691,188,1704,140376,10,6155,1716,130908,0,6073
1716,2439,1729,140442,0,6258,1742,130880,2,6011
1742,3521,1754,140509,18,6319,1767,130962,7,6060
1767,963,1779,140605,7,6304,1792,131100,0,6082
1792,534,1804,140626,23,6305,1817,131099,0,6104
1817,3169,1829,140427,6,6323,1842,130909,0,6025
1842,3519,1855,140066,0,6242,1867,130709,34,6056
1867,901,1880,139767,0,6050,1892,130548,28,6025
1892,496,1905,139599,0,6051,1917,130501,4,6022
1917,3145,1930,139624,0,6107,1942,130516,21,5955
1942,3406,1955,139699,0,6130,1967,130433,0,5992
1967,802,1980,139741,10,6064,1993,130367,8,5978
1993,1046,2005,139859,29,6105,2018,130418,0,5971
2018,3823,2031,139898,0,6120,2043,130600,70,5951
2043,2927,2056,139915,0,6105,2068,130773,28,6030
2068,385,2081,139908,2,6005,2093,130885,6,6075
2093,997,2106,139884,0,6158,2118,130849,13,6059
2118,3749,2131,139851,0,6174,2143,130878,9,6042
2143,2833,2156,139837,14,6176,2168,130951,11,6082
2168,338,2181,139871,7,6080,2193,130920,10,6070
2193,1033,2207,139958,5,6143,2219,130901,0,6039
2219,4095,2232,140102,9,6156,2244,130938,28,6001
2244,2320,2257,140191,0,6179,2269,130985,35,6069
2269,116,2282,140271,0,6152,2294,131035,21,6082
2294,1621,2307,140307,0,6268,2319,131063,4,6091
2319,4095,2332,140301,21,6286,2344,131056,10,6112
2344,2256,2357,140320,24,6273,2369,131065,22,6134
2369,100,2383,140401,17,6169,2399,131116,25,6103
2399,4095,2413,140499,0,6274,2424,131175,0,6119
2424,2208,2438,140631,0,6271,2450,131125,0,6121
2450,150,2463,140593,0,6276,2475,131146,30,6130
2475,2285,2488,140642,2,6371,2500,131229,31,6085
2500,4080,2513,140660,29,6391,2525,131292,60,6124
2525,1623,2538,140730,21,6332,2550,131336,10,6196
2550,137,2564,140856,0,6329,2580,131406,3,6144
2580,4033,2594,140805,0,6383,2610,131361,0,6200
2610,133,2624,140503,0,6316,2640,131140,8,6091
2640,3990,2654,140193,0,6302,2665,131031,0,6119
2665,1499,2679,139993,14,6159,2691,130958,0,6080
2691,444,2704,139914,21,6159,2716,130898,31,6069
2716,2967,2730,140015,13,6150,2746,130902,0,6072
2746,967,2760,140157,8,5988,2776,131047,0,6107
2776,2993,2790,140296,0,6101,2806,131175,1,6162
2806,927,2820,140393,1,6022,2836,131187,11,6152
2836,3029,2850,140370,8,6099,2866,131197,29,6154
2866,894,2880,140258,31,5908,2891,131268,0,6144
2891,477,2906,140237,6,5972,2922,131344,10,6069
2922,2951,2936,140234,0,5902,2952,131418,4,6126
2952,912,2966,140356,0,5890,2982,131622,0,6087
2982,2915,2996,140506,3,5949,3012,131798,0,6176
3012,929,3026,140591,16,5970,3042,131811,3,6138
3042,2886,3056,140648,25,5957,3072,131921,22,6227
3072,944,3087,140681,12,5982,3102,132078,23,6146
3102,2843,3117,140717,0,5952,3132,132171,21,6201
3132,963,3147,140782,0,6051,3163,132256,0,6138
3163,2363,3177,140900,6,6125,3193,132371,0,6180
3193,1502,3207,140914,10,6214,3223,132455,6,6113
3223,2324,3237,140926,15,6163,3253,132676,0,6220
3253,1527,3268,140973,0,6226,3283,132797,0,6193
3283,2271,3298,141042,0,6181,3313,132970,15,6273
3313,1567,3328,141115,0,6341,3343,133090,22,6241
3343,2250,3358,141110,6,6300,3373,133059,10,6289
3373,1589,3388,140784,30,6375,3404,132950,0,6206
3404,1712,3418,140462,18,6189,3434,132786,0,6205
3434,2189,3449,140329,0,6201,3464,132627,0,6213
3464,1669,3479,140372,0,6075,3494,132760,0,6292
3494,2192,3509,140514,0,6231,3524,133016,0,6337
3524,1648,3539,140633,4,6133,3554,133182,8,6401
3554,2229,3569,140728,10,6260,3584,133254,5,6410
3584,1599,3599,140740,16,6083,3614,133210,14,6422
3614,2265,3630,140657,12,6131,3645,133167,9,6410
3645,1040,3660,140581,0,5974,3675,133135,0,6416
3675,2864,3690,140589,0,6140,3705,133046,0,6408
3705,1007,3720,140637,11,6018,3735,132919,4,6444
3735,2883,3750,140725,21,6144,3765,132846,13,6438
3765,963,3781,140811,18,5997,3795,132816,8,6432
3795,2941,3811,140877,0,6107,3825,132703,18,6393
3825,945,3841,140917,0,6023,3855,132498,32,6345
3855,3013,3871,141003,0,6254,3886,132417,3,6311
3886,469,3901,141049,4,6183,3916,132389,0,6269
3916,3493,3931,141076,18,6324,3946,132266,0,6264
3946,443,3962,141078,17,6213,3976,132204,0,6246
3976,3541,3992,141125,1,6316,4006,132096,10,6252
4006,446,4022,141198,0,6288,4036,132037,14,6204
4036,3644,4052,141267,0,6469,4066,131829,1,6194
4066,478,4082,141230,21,6412,4097,131578,28,6098
4097,4026,4112,140895,10,6424,4127,131307,0,6094
4127,131,4143,140554,14,6283,4157,131163,0,5998
4157,4064,4173,140426,0,6270,4187,131129,0,6116
4187,145,4203,140493,0,6252,4217,130999,0,6092
4217,4095,4233,140583,0,6340,4247,130878,16,6167
4247,176,4263,140689,26,6326,4277,130809,27,6139
4277,4095,4293,140758,25,6330,4307,130787,17,6199
4307,144,4319,140755,26,6229,4333,130845,22,6232
4333,2082,4349,140711,17,6336,4363,130681,0,6169
4363,1793,4379,140657,0,6247,4393,130666,12,6210
4393,2130,4409,140641,0,6379,4423,130611,0,6237
4423,1818,4439,140726,12,6297,4453,130485,0,6280
4453,2180,4469,140785,13,6385,4483,130383,2,6262
4483,1735,4495,140865,4,6352,4508,130345,23,6280
4508,144,4520,140932,46,6257,4533,130408,13,6280
4533,2224,4545,140984,44,6385,4559,130473,16,6190
4559,3632,4575,141028,0,6449,4589,130475,0,6242
4589,404,4605,141097,3,6501,4619,130588,0,6202
4619,3667,4635,141101,9,6468,4649,130622,0,6295
4649,401,4666,141150,0,6473,4679,130467,7,6256
4679,3574,4691,141179,28,6458,4704,130399,4,6303
4704,1090,4716,141225,41,6426,4729,130395,9,6313
4729,426,4741,141293,1,6478,4754,130418,23,6298
4754,2947,4766,141345,6,6586,4779,130497,14,6251
4779,3641,4791,141338,0,6574,4805,130480,4,6274
4805,592,4821,141018,3,6473,4835,130266,0,6238
4835,3463,4847,140676,6,6418,4860,130063,3,6163
4860,3064,4872,140459,34,6353,4885,129940,0,6218
4885,559,4897,140386,49,6228,4910,129885,2,6237
4910,867,4922,140424,20,6297,4935,129885,12,6232
4935,3568,4947,140483,13,6320,4960,129952,16,6196
4960,3098,4972,140545,16,6332,4985,130005,17,6231
4985,577,4997,140579,0,6233,5010,130083,11,6245
5010,925,5023,140597,0,6283,5036,130098,1,6197
5036,4036,5048,140612,38,6296,5061,130111,8,6171
5061,2512,5073,140594,50,6300,5086,130161,0,6239
5086,225,5098,140561,9,6243,5111,130248,0,6254
5111,1443,5123,140547,31,6321,5136,130333,5,6258
5136,4095,5148,140567,14,6341,5161,130305,0,6269
5161,2545,5173,140629,0,6343,5186,130322,19,6297
5186,223,5199,140680,15,6189,5211,130434,24,6328
5211,1451,5224,140740,0,6317,5236,130477,8,6265
5236,4085,5249,140798,0,6345,5262,130537,1,6275
5262,1939,5274,140898,21,6400,5287,130581,1,6305
5287,172,5299,140933,39,6338,5312,130740,1,6334
5312,2098,5324,140977,20,6442,5337,130846,0,6308
5337,4095,5349,140986,0,6431,5362,130856,0,6366
5362,1908,5375,141038,1,6401,5387,130846,6,6397
5387,125,5400,141058,4,6317,5412,130811,16,6390
5412,2064,5425,141077,0,6445,5437,130803,15,6336
5437,4095,5450,141135,0,6507,5462,130844,0,6390
5462,1808,5475,141203,0,6497,5487,130958,5,6406
5487,122,5500,141213,11,6463,5513,131065,0,6413
5513,2783,5525,141217,0,6512,5538,131021,0,6316
5538,3824,5551,140871,0,6454,5563,130783,23,6370
5563,1205,5576,140575,16,6315,5588,130590,51,6343
5588,336,5601,140350,0,6238,5613,130493,17,6355
5613,2773,5626,140311,0,6299,5638,130530,26,6297
5638,3694,5651,140332,5,6287,5663,130584,6,6356
5663,1157,5676,140335,24,6219,5688,130585,23,6342
5688,338,5701,140439,15,6235,5713,130598,2,6324
5713,2783,5727,140512,0,6259,5739,130605,7,6254
5739,3207,5752,140558,0,6248,5764,130634,20,6302
5764,656,5777,140527,0,6186,5789,130589,39,6299
5789,752,5802,140507,1,6278,5814,130629,34,6324
5814,3427,5827,140465,14,6301,5839,130662,15,6294
5839,3131,5852,140403,42,6312,5864,130758,22,6365
5864,582,5877,140447,15,6192,5889,130766,17,6371
5889,769,5903,140567,0,6250,5919,130789,16,6302
5919,3105,5933,140662,0,6281,5944,130815,0,6357
5944,576,5958,140829,0,6241,5970,130828,0,6336
5970,1265,5983,140792,0,6359,5995,130876,26,6313
5995,3970,6008,140819,25,6396,6020,130905,47,6281
6020,2598,6033,140831,25,6408,6045,130908,32,6350
6045,224,6058,140878,17,6295,6070,130903,24,6376
6070,1290,6084,140995,4,6352,6100,130852,0,6320
6100,2538,6114,141011,0,6364,6130,130870,23,6361
6130,1317,6144,141161,2,6442,6160,130927,20,6319
6160,2512,6174,141207,7,6414,6185,130890,0,6348
6185,165,6199,141204,33,6376,6211,130942,4,6354
6211,1897,6224,141195,14,6420,6236,130967,23,6287
6236,4095,6250,141316,0,6354,6266,130929,6,6343
6266,90,6280,141071,0,6222,6296,130870,0,6274
6296,4095,6310,140772,0,6231,6326,130782,0,6325
6326,80,6340,140551,0,6039,6356,130729,2,6221
6356,4095,6370,140474,28,6038,6386,130704,19,6273
6386,77,6400,140533,0,5887,6411,130710,0,6267
6411,1947,6426,140600,0,5922,6442,130808,22,6236
6442,1338,6456,140663,0,5773,6472,130882,0,6241
6472,2599,6486,140791,0,5935,6502,130806,0,6192
6502,1296,6516,140787,0,5854,6532,130770,0,6220
6532,2608,6546,140716,21,6018,6562,130739,0,6215
6562,1011,6576,140669,11,5851,6592,130958,11,6222
6592,2720,6607,140680,10,5982,6622,131116,16,6222
6622,1120,6637,140727,7,5873,6652,131119,19,6195
6652,2799,6667,140833,0,6117,6683,131072,5,6156
6683,540,6697,141017,0,6042,6713,131056,0,6134
6713,3568,6727,141030,9,6219,6743,131135,0,6117
6743,481,6757,141082,21,6099,6773,131088,0,6142
6773,3641,6788,141106,2,6228,6803,131092,0,6179
6803,453,6818,141129,0,6128,6833,131046,20,6158
6833,3651,6848,141194,0,6340,6863,130976,17,6188
6863,428,6878,141265,8,6247,6893,131060,6,6146
6893,3652,6908,141334,14,6380,6924,131047,2,6181
6924,12,6939,141394,6,6260,6954,131051,6,6170
6954,4095,6969,141451,18,6323,6984,131089,0,6228
6984,0,6999,141484,0,6243,7014,131098,0,6241
7014,4095,7029,141339,0,6392,7044,130959,0,6304
7044,0,7059,140992,24,6198,7074,130886,20,6234
7074,4095,7089,140786,20,6199,7104,130821,19,6258
7104,0,7120,140738,15,6006,7134,130818,28,6190
7134,4095,7150,140819,3,6048,7165,130814,9,6224
7165,0,7180,140910,0,6000,7195,130892,9,6134
7195,4095,7210,141004,0,6128,7225,130938,0,6200
7225,0,7240,141050,4,6079,7255,130961,0,6151
7255,4095,7270,141032,17,6132,7285,131025,1,6251
7285,0,7301,140959,20,6060,7315,131002,11,6136
7315,4095,7331,140945,0,6111,7345,131033,5,6191
7345,2,7361,140971,0,6152,7375,131115,9,6090
7375,4095,7391,141077,0,6249,7406,131209,9,6131
7406,0,7421,141184,8,6253,7436,131318,0,6015
7436,4077,7451,141233,7,6293,7466,131357,0,6135
7466,0,7482,141307,1,6276,7496,131517,0,6055
7496,4047,7512,141348,4,6315,7526,131528,0,6190
7526,16,7542,141391,0,6400,7556,131610,15,6104
7556,4095,7572,141477,21,6440,7586,131673,19,6231
7586,77,7602,141511,28,6448,7616,131761,14,6126
7616,4060,7632,141563,19,6443,7647,131841,0,6241
7647,383,7663,141602,0,6459,7677,131979,0,6187
7677,3468,7693,141647,8,6437,7707,132013,0,6352
7707,423,7723,141731,3,6562,7737,132121,4,6348
7737,3488,7753,141802,25,6537,7767,132138,4,6475
7767,457,7783,141618,32,6581,7797,132181,14,6437
7797,3478,7814,141263,11,6439,7827,132107,7,6506
7827,437,7839,141101,32,6345,7852,132241,12,6463
7852,3552,7864,141089,90,6428,7878,132311,8,6430
7878,2928,7894,141173,4,6388,7908,132326,3,6502
7908,1006,7924,141317,0,6503,7938,132449,0,6462
7938,2928,7954,141417,23,6424,7968,132584,0,6576
7968,1011,7984,141450,21,6510,7998,132642,1,6550
7998,2863,8010,141469,5,6483,8023,132563,14,6625
8023,48,8035,141441,47,6380,8048,132667,17,6613
8048,1033,8060,141392,20,6488,8073,132808,20,6582
8073,4095,8085,141373,0,6551,8099,133026,11,6578
8099,2331,8115,141422,3,6464,8129,133106,13,6629
8129,1679,8145,141474,0,6553,8159,133238,1,6603
8159,2277,8176,141542,0,6444,8189,133280,0,6693
8189,1678,8201,141620,37,6542,8214,133299,0,6676
8214,4095,8226,141669,33,6584,8239,133359,0,6719
8239,2267,8251,141715,0,6621,8264,133476,7,6764
8264,18,8276,141734,14,6535,8289,133466,20,6756
8289,1799,8301,141776,28,6664,8314,133573,21,6713
8314,4095,8326,141805,0,6648,8340,133669,27,6734
8340,1599,8352,141828,15,6615,8365,133551,10,6751
8365,0,8377,141859,44,6523,8390,133452,0,6765
8390,2423,8402,141878,43,6662,8415,133375,0,6677
8415,4095,8427,141930,25,6706,8440,133428,0,6777
8440,1583,8452,141995,27,6696,8465,133429,0,6819
8465,38,8477,141972,6,6642,8490,133307,6,6808
8490,2538,8502,141811,0,6712,8515,133183,22,6727
8515,4095,8528,141577,9,6634,8540,133123,12,6756
8540,1488,8553,141411,0,6555,8565,132963,3,6726
8565,0,8578,141358,0,6494,8591,132852,0,6677
8591,3251,8603,141468,3,6644,8616,132797,2,6598
8616,3797,8628,141568,38,6636,8641,132738,0,6673
8641,866,8653,141643,16,6568,8666,132679,0,6678
8666,375,8678,141693,17,6572,8691,132634,1,6703
8691,3294,8704,141752,7,6627,8716,132645,8,6637
8716,3682,8729,141751,0,6621,8741,132600,8,6690
8741,767,8754,141707,0,6523,8766,132504,10,6664
8766,326,8779,141641,0,6614,8791,132434,2,6638
8791,3306,8804,141633,18,6692,8817,132407,0,6566
8817,3207,8829,141663,22,6676,8842,132432,0,6620
8842,280,8854,141747,26,6568,8867,132449,0,6625
8867,849,8880,141787,0,6626,8892,132497,50,6620
8892,4095,8905,141858,0,6641,8917,132536,13,6624
8917,3071,8930,141901,0,6677,8942,132568,26,6698
8942,194,8955,141961,0,6646,8967,132521,18,6693
8967,833,8980,141967,11,6750,8992,132516,18,6661
8992,4095,9005,141939,30,6744,9017,132485,0,6626
9017,3025,9030,141988,18,6735,9042,132445,7,6669
9042,151,9056,142080,13,6606,9068,132465,13,6646
9068,1443,9081,142098,1,6716,9093,132443,45,6595
9093,4095,9106,142104,0,6748,9118,132412,47,6600
9118,2465,9131,142135,0,6789,9143,132427,18,6691
9143,0,9156,142176,10,6714,9168,132397,8,6694
9168,1465,9181,142142,16,6812,9193,132334,20,6630
9193,4095,9206,141933,23,6773,9218,132210,16,6647
9218,2419,9232,141741,8,6656,9248,132120,29,6631
9248,1466,9262,141501,0,6603,9273,132027,0,6548
9273,4095,9287,141527,0,6607,9299,132010,13,6554
9299,1835,9312,141471,0,6579,9324,131951,22,6552
9324,0,9337,141512,5,6536,9349,131911,74,6572
9349,2160,9362,141538,19,6616,9374,131886,23,6503
9374,4095,9387,141606,22,6592,9399,131890,8,6582
9399,1755,9413,141679,0,6490,9429,131824,5,6567
9429,2164,9443,141643,0,6579,9459,131816,15,6555
9459,1751,9473,141705,0,6538,9489,131802,1,6544
9489,2196,9503,141651,6,6609,9514,131792,0,6475
9514,4095,9528,141567,19,6597,9540,131804,18,6511
9540,1017,9553,141509,11,6468,9565,131797,34,6509
9565,166,9579,141590,12,6471,9595,131812,0,6463
9595,3920,9609,141677,8,6485,9625,131954,0,6560
9625,163,9639,141814,0,6456,9655,132005,0,6506
9655,3860,9669,141881,0,6506,9685,131972,9,6575
9685,165,9699,141899,2,6448,9715,131964,32,6491
9715,3802,9729,141899,12,6412,9740,131961,0,6555
9740,929,9755,141881,6,6211,9771,131949,5,6532
9771,3834,9785,141906,0,6298,9801,131939,0,6525
9801,353,9815,141993,0,6144,9831,131894,0,6495
9831,3899,9845,142074,0,6331,9861,131886,0,6526
9861,333,9875,142111,23,6190,9891,131896,0,6543
9891,3903,9905,141984,11,6316,9921,131779,17,6516
9921,295,9936,141625,5,6061,9951,131637,25,6448
9951,3923,9966,141273,6,6149,9981,131466,17,6404
9981,269,9996,141148,0,6002,10012,131365,0,6305
10012,4095,10026,141227,0,6182,10042,131320,9,6308
10042,0,10056,141260,22,6081,10072,131350,0,6234
10072,4095,10086,141242,15,6186,10102,131412,0,6303
10102,0,10117,141257,11,6070,10132,131388,0,6244
10132,4095,10147,141229,0,6184,10162,131374,6,6303
10162,0,10177,141198,0,6147,10192,131328,12,6187
10192,4095,10207,141171,0,6278,10222,131326,19,6270
10222,0,10237,141166,19,6192,10253,131390,6,6151
10253,4095,10267,141188,6,6256,10283,131390,0,6271
10283,0,10298,141209,0,6150,10313,131360,0,6212
10313,4095,10328,141272,0,6252,10343,131382,0,6362
10343,0,10358,141333,0,6230,10373,131456,0,6314
10373,4095,10388,141436,7,6299,10403,131518,1,6420
10403,0,10418,141474,37,6234,10433,131546,8,6345
10433,4095,10449,141472,2,6222,10464,131533,15,6426
10464,48,10479,141484,0,6155,10494,131525,3,6325
10494,4056,10509,141506,0,6185,10524,131541,0,6414
10524,44,10539,141546,0,6228,10554,131589,0,6345
10554,3983,10569,141651,18,6254,10584,131676,0,6463
10584,48,10599,141685,19,6223,10614,131680,0,6361
10614,3926,10630,141584,9,6196,10644,131523,0,6422
10644,50,10660,141194,0,6113,10674,131381,17,6273
10674,3967,10690,140879,0,6053,10705,131347,9,6318
10705,414,10720,140740,0,6053,10735,131314,5,6144
10735,3389,10750,140779,12,6037,10765,131265,0,6223
10765,417,10780,140824,14,6038,10795,131307,0,6118
10795,3390,10811,140836,0,5968,10825,131386,0,6241
10825,452,10841,140830,0,6030,10855,131362,14,6109
10855,3380,10871,140884,0,6039,10885,131340,21,6227
10885,505,10901,140839,0,6133,10915,131369,31,6095
10915,3414,10931,140807,22,6065,10946,131430,9,6179
10946,1040,10961,140800,19,6118,10976,131503,0,6080
10976,2735,10992,140810,7,6000,11006,131630,0,6211
11006,1124,11022,140854,0,6091,11036,131655,0,6200
11036,2733,11052,140949,0,6085,11066,131700,0,6359
11066,1171,11082,141036,5,6201,11096,131798,18,6323
11096,2748,11112,141086,21,6150,11126,131830,23,6418
11126,1175,11142,141121,29,6218,11156,131878,8,6397
11156,2692,11168,141143,31,6198,11182,131982,0,6450
11182,102,11198,141160,12,6197,11212,131946,2,6424
11212,4095,11228,141201,18,6296,11242,132022,0,6480
11242,146,11258,141287,0,6304,11272,132128,0,6493
11272,4095,11288,141357,10,6349,11302,132208,5,6573
11302,131,11318,141409,25,6321,11332,132263,9,6542
11332,4095,11344,141465,24,6319,11357,132275,27,6567
11357,2146,11369,141450,43,6339,11382,132327,15,6570
11382,151,11394,141186,34,6228,11408,132343,18,6570
11408,2351,11424,140831,0,6271,11438,132276,7,6504
11438,1623,11454,140682,6,6116,11468,132335,0,6529
11468,2384,11484,140642,7,6141,11498,132392,0,6528
11498,1563,11510,140717,0,6121,11523,132314,0,6574
11523,206,11535,140802,21,6028,11548,132285,0,6567
11548,2397,11560,140824,32,6147,11573,132387,13,6528
11573,3950,11585,140850,9,6197,11598,132440,16,6575
11598,1583,11610,140870,41,6166,11623,132559,10,6574
11623,291,11635,140848,10,6128,11649,132642,8,6570
11649,2997,11665,140826,9,6181,11679,132732,0,6560
11679,972,11691,140806,25,6095,11704,132772,0,6588
11704,511,11716,140811,39,6058,11729,132857,0,6598
11729,3035,11741,140866,30,6178,11754,132895,5,6568
11754,3470,11766,140918,11,6214,11779,132907,1,6652
11779,990,11791,140986,23,6177,11804,132942,20,6662
11804,619,11816,141052,17,6186,11829,133026,30,6676
11829,3123,11841,141095,0,6239,11854,133152,15,6618
11854,3437,11867,141125,5,6227,11880,133193,0,6664
11880,499,11892,141176,56,6175,11905,133153,0,6654
11905,967,11917,141205,35,6244,11930,133172,1,6651
11930,3627,11942,141215,9,6333,11955,133144,0,6606
11955,2983,11967,141255,31,6337,11980,133160,0,6693
11980,529,11992,141287,21,6245,12005,133047,0,6721
12005,1047,12017,141325,9,6314,12030,132981,9,6680
12030,3687,12043,141383,14,6320,12055,133104,20,6657
12055,2889,12068,141438,0,6349,12080,133110,19,6700
12080,449,12093,141483,0,6287,12105,133036,3,6683
12105,989,12118,141295,0,6387,12131,132930,2,6631
12131,4095,12143,141042,25,6340,12156,132765,0,6567
12156,2463,12168,140824,14,6269,12181,132604,0,6581
12181,254,12193,140732,4,6102,12206,132588,0,6610
12206,1565,12219,140737,3,6140,12231,132559,15,6575
12231,4076,12244,140819,0,6145,12256,132492,18,6568
12256,2356,12269,140895,0,6190,12281,132430,9,6607
12281,181,12294,140949,0,6143,12306,132352,18,6566
12306,1563,12319,140963,10,6243,12331,132272,3,6511
12331,4048,12344,140906,28,6233,12357,132187,2,6520
12357,1884,12369,140971,6,6191,12382,132127,0,6494
12382,196,12395,140919,5,6100,12407,132074,52,6506
12407,2128,12420,140885,0,6174,12432,132022,33,6428
12432,4058,12445,140904,0,6216,12457,131952,33,6489
12457,1776,12470,140935,4,6200,12482,131919,27,6508
12482,153,12495,140984,0,6188,12507,131872,16,6514
12507,2131,12520,141023,29,6260,12532,131821,12,6443
12532,4023,12545,141075,18,6255,12557,131747,0,6447
12557,1744,12571,141203,4,6190,12582,131679,0,6448
12582,160,12596,141346,0,6194,12608,131616,29,6416
12608,2768,12621,141271,0,6295,12633,131541,38,6358
12633,3654,12646,141305,0,6345,12658,131530,55,6414
12658,1167,12671,141308,0,6287,12683,131519,7,6439
12683,379,12696,141277,25,6314,12708,131465,25,6444
12708,2781,12721,141321,1,6343,12733,131398,22,6369
12733,3575,12747,141469,14,6339,12763,131295,27,6410
12763,390,12777,141541,0,6330,12788,131200,0,6391
12788,2782,12802,141660,0,6400,12813,131124,0,6303
12813,3554,12827,141569,2,6430,12839,131011,0,6343
12839,658,12852,141197,24,6293,12864,130887,47,6309
12864,779,12877,140889,36,6269,12889,130776,65,6281
12889,3351,12903,140723,17,6193,12919,130686,0,6282
12919,640,12933,140711,14,6018,12949,130646,0,6288
12949,3359,12963,140835,0,6109,12979,130632,18,6267
12979,602,12993,140949,0,6019,13009,130622,32,6257
13009,3367,13023,140962,8,6128,13034,130602,0,6194
13034,3034,13048,140937,30,6088,13060,130593,0,6236
13060,297,13073,140856,10,5947,13085,130586,29,6212
13085,1263,13099,140898,0,5959,13115,130530,5,6148
13115,2591,13129,140863,2,5905,13145,130530,0,6210
13145,1278,13159,140943,0,5931,13175,130554,0,6181
13175,2567,13189,140994,9,5885,13205,130577,6,6231
13205,1280,13219,141012,22,5894,13235,130575,16,6176
13235,2529,13249,141048,27,5811,13265,130578,9,6206
13265,1274,13280,141115,5,5806,13296,130597,14,6122
13296,2069,13310,141202,0,5761,13326,130611,15,6151
13326,1831,13340,141306,0,5907,13356,130587,2,6106
13356,2055,13370,141349,6,5883,13386,130567,0,6139
13386,1836,13400,141335,19,6003,13416,130556,0,6110
13416,2014,13431,141344,9,5917,13446,130589,1,6149
13446,1838,13461,141377,11,6013,13476,130623,20,6090
13476,2000,13491,141434,0,5939,13506,130626,14,6102
13506,1846,13521,141520,0,6174,13537,130651,17,6030
13537,1431,13551,141652,0,6092,13567,130633,3,6039
13567,2471,13581,141442,18,6228,13597,130502,0,5989
13597,1424,13612,141038,23,6013,13627,130362,0,6010
13627,2471,13642,140707,1,5996,13657,130342,0,6021
13657,1375,13672,140587,0,5857,13687,130370,8,6038
13687,2459,13702,140643,0,6007,13717,130338,24,6039
13717,1366,13732,140728,14,5904,13747,130324,20,6045
13747,2499,13762,140752,19,6000,13778,130310,10,6040
13778,859,13793,140756,12,5846,13808,130325,0,6037
13808,3066,13823,140760,0,5943,13838,130305,0,6060
13838,848,13853,140750,0,5818,13868,130301,0,6108
13868,3054,13883,140723,0,5948,13898,130311,0,6131
13898,832,13913,140753,35,5802,13928,130340,22,6132
13928,3082,13943,140790,10,5888,13958,130328,24,6135
13958,810,13974,140826,4,5722,13988,130339,19,6103
13988,3128,14004,140892,0,5843,14019,130329,0,6075
14019,406,14034,141010,0,5781,14049,130315,0,6037
14049,3603,14064,141051,0,5940,14079,130303,0,6057
14079,375,14094,141085,17,5862,14109,130292,0,6058
14109,3600,14124,141133,5,5971,14139,130311,5,6073
14139,375,14155,141162,3,5865,14169,130328,23,6043
14169,3653,14185,141185,0,5970,14199,130342,27,6048
14199,386,14215,141244,0,5993,14229,130390,19,5970
14229,3714,14245,141332,0,6130,14260,130395,0,5978
14260,139,14275,141397,19,6137,14290,130443,0,5902
14290,4017,14305,141467,9,6187,14320,130483,0,5951
14320,127,14336,141400,0,6118,14350,130448,0,5907
14350,4039,14366,141029,0,6129,14380,130252,1,5980
14380,160,14396,140668,0,6044,14410,130108,10,5879
14410,4095,14426,140512,4,6015,14440,130090,28,5939
14440,199,14456,140508,35,5988,14470,130091,16,5866
14470,4083,14486,140586,32,5982,14501,130114,0,5948
14501,150,14517,140624,4,5959,14531,130218,3,5900
14531,4002,14547,140637,0,5981,14561,130248,0,6026
14561,178,14577,140681,2,6045,14591,130240,0,6023
14591,4053,14607,140687,29,6059,14621,130221,0,6124
14621,214,14637,140661,37,6053,14651,130209,14,6065
14651,3973,14668,140641,20,6035,14681,130193,18,6138
14681,176,14693,140667,47,5900,14706,130291,11,6123
14706,2224,14718,140689,76,6020,14732,130350,0,6061
14732,3600,14748,140757,3,6083,14762,130377,21,6130
14762,419,14778,140887,4,6115,14792,130431,0,6102
14792,3645,14808,140959,23,6145,14822,130450,0,6174
14822,414,14838,140984,2,6161,14852,130436,0,6140
14852,3563,14864,141035,0,6113,14877,130341,25,6210
14877,1113,14889,141068,26,6115,14902,130423,23,6204
14902,435,14914,141103,11,6127,14927,130527,10,6197
14927,2864,14939,141136,0,6237,14953,130626,20,6123
14953,3155,14969,141219,0,6218,14983,130650,4,6181
14983,816,14999,141286,0,6270,15013,130760,0,6143
15013,3082,15030,141344,0,6175,15043,130722,0,6219
15043,791,15055,141395,42,6222,15068,130782,0,6241
15068,3393,15080,141475,39,6287,15093,130806,0,6205
15093,3111,15105,141475,14,6341,15118,130794,12,6255
15118,657,15130,141241,19,6234,15143,130789,9,6250
15143,879,15155,140916,13,6222,15168,130743,14,6201
15168,3504,15180,140679,2,6137,15194,130769,0,6146
15194,2622,15206,140558,3,6073,15219,130827,11,6185
15219,283,15231,140575,39,5961,15244,130875,0,6197
15244,1290,15256,140683,37,6041,15269,130876,0,6171
15269,3969,15281,140736,1,6113,15294,130956,0,6187
15294,2663,15306,140802,24,6146,15319,130975,1,6264
15319,339,15331,140830,22,6063,15344,131014,20,6264
15344,1342,15356,140855,1,6138,15369,131044,20,6244
15369,3955,15382,140835,2,6125,15394,131168,0,6220
15394,2617,15407,140786,0,6105,15419,131267,0,6256
15419,274,15432,140760,0,6018,15445,131356,0,6258
15445,1849,15457,140813,3,6169,15470,131453,0,6220
15470,4095,15482,140856,6,6177,15495,131554,0,6253
15495,2168,15507,140928,21,6200,15520,131611,0,6302
15520,192,15532,141011,8,6096,15545,131613,0,6333
15545,1861,15558,141064,4,6169,15570,131677,25,6305
15570,4095,15583,141121,0,6188,15595,131701,8,6328
15595,2090,15608,141163,0,6210,15620,131714,14,6344
15620,134,15633,141205,6,6185,15645,131753,0,6333
15645,1840,15658,141245,0,6297,15671,131805,7,6285
15671,4068,15683,141305,24,6314,15696,131832,0,6302
15696,1601,15708,141338,0,6275,15721,131814,0,6319
15721,261,15734,141376,0,6217,15746,131809,48,6344
15746,2437,15759,141424,5,6291,15771,131823,23,6310
15771,3922,15784,141441,0,6326,15796,131817,0,6371
15796,1496,15809,141512,0,6328,15821,131805,21,6394
15821,222,15834,141552,6,6340,15846,131807,12,6379
15846,2418,15859,141501,8,6415,15871,131727,0,6305
15871,3889,15884,141358,25,6380,15896,131561,7,6323
15896,1471,15910,141134,0,6201,15922,131427,25,6275
15922,529,15935,140902,0,6166,15947,131348,57,6247
15947,3010,15960,140787,0,6180,15972,131313,40,6201
15972,3443,15985,140820,0,6215,15997,131292,33,6265
15997,944,16010,140900,23,6143,16022,131262,9,6284
16022,509,16035,140917,36,6196,16047,131312,24,6282
16047,2995,16060,141003,15,6216,16072,131299,14,6236
16072,3398,16086,141144,0,6196,16102,131269,14,6287
16102,509,16116,141162,0,6199,16127,131220,0,6254
16127,2992,16141,141182,0,6250,16153,131197,12,6178
16153,2976,16166,141031,0,6278,16178,131198,24,6220
16178,500,16191,140991,20,6170,16203,131209,63,6234
16203,922,16216,140976,18,6256,16228,131190,33,6224
16228,3532,16242,141046,18,6237,16258,131169,0,6260
16258,483,16272,141186,0,6121,16288,131187,8,6258
16288,3542,16302,141354,0,6249,16318,131267,31,6282
16318,459,16332,141456,0,6239,16343,131247,0,6270
16343,912,16357,141416,10,6340,16368,131289,0,6238
16368,3509,16382,141478,9,6327,16394,131310,36,6190
16394,2487,16407,141424,18,6307,16419,131317,32,6225
16419,213,16433,141530,0,6170,16449,131310,0,6213
16449,3987,16463,141560,0,6235,16479,131261,0,6274
16479,192,16493,141690,0,6165,16509,131311,3,6234
16509,3984,16523,141743,2,6275,16539,131324,28,6272
16539,169,16553,141782,19,6103,16569,131371,15,6230
16569,3952,16583,141787,29,6178,16594,131358,0,6218
16594,2435,16609,141702,0,6016,16625,131187,0,6213
16625,1936,16639,141350,4,5982,16655,131030,0,6123
16655,1952,16669,141081,0,5819,16685,130948,0,6131
16685,1946,16699,140931,0,5864,16715,130865,0,6100
16715,1920,16729,140914,23,5743,16745,130921,0,6150
16745,1950,16759,140982,27,5854,16775,130943,25,6107
16775,1911,16790,141017,1,5716,16805,130969,22,6105
16805,1936,16820,141068,0,5886,16835,130924,10,6054
16835,1890,16850,141088,0,5872,16866,130883,0,6035
16866,2549,16880,141140,17,6019,16896,130872,0,5992
16896,1328,16910,141046,35,5933,16926,130869,2,5994
16926,2542,16941,141024,10,6030,16956,130947,0,6030
16956,1331,16971,141065,0,5877,16986,130965,0,6046
16986,2529,17001,141121,0,6078,17016,131021,11,6062
17016,1307,17031,141264,0,6042,17046,131059,18,6054
17046,2544,17061,141361,7,6197,17076,131065,28,6069
17076,1318,17091,141423,10,6089,17107,131076,0,6065
17107,3114,17122,141472,24,6176,17137,131108,8,6099
17137,807,17152,141516,0,6038,17167,131115,0,6126
17167,3119,17182,141566,0,6215,17197,131150,0,6173
17197,795,17212,141625,0,6106,17227,131109,0,6193
17227,3098,17242,141695,31,6212,17257,131158,10,6230
17257,785,17272,141730,33,6066,17287,131121,12,6192
17287,3129,17303,141785,11,6137,17317,131161,8,6199
17317,806,17333,141840,9,6015,17348,131077,0,6141
17348,3631,17363,141643,0,6142,17378,130880,0,6138
17378,400,17393,141292,0,5992,17408,130713,0,6080
17408,3579,17423,140975,9,5998,17438,130609,0,6105
17438,380,17453,140857,21,5825,17468,130587,12,6063
17468,3619,17484,140898,1,5871,17498,130554,9,6060
17498,383,17514,140975,0,5834,17528,130558,19,5990
17528,3681,17544,141031,0,5987,17559,130556,7,6000
17559,140,17574,141099,0,5968,17589,130526,0,5886
17589,3985,17604,141133,26,6073,17619,130538,0,5934
17619,146,17634,141105,25,6006,17649,130556,0,5852
17649,3999,17665,141039,8,6039,17679,130620,1,5952
17679,160,17695,141039,0,6010,17709,130590,7,5878
17709,4070,17725,141101,0,6130,17739,130583,18,5965
17739,174,17755,141209,0,6125,17769,130636,24,5876
17769,4095,17785,141339,20,6199,17800,130661,14,5965
17800,107,17816,141412,0,6167,17830,130724,0,5895
17830,4049,17846,141468,6,6207,17860,130769,0,6033
17860,117,17876,141507,0,6225,17890,130802,0,6014
17890,4078,17906,141550,4,6310,17920,130839,0,6158
17920,160,17936,141634,21,6333,17950,130799,21,6098
17950,4092,17966,141678,47,6349,17980,130777,12,6200
17980,145,17997,141714,38,6343,18010,130735,8,6126
18010,4016,18022,141757,48,6329,18036,130841,6,6165
18036,1269,18052,141813,9,6262,18066,130874,7,6190
18066,2667,18082,141898,0,6439,18096,130913,0,6194
18096,1308,18112,141727,15,6341,18126,130759,0,6205
18126,2689,18142,141347,16,6332,18156,130506,0,6169
18156,1295,18173,141026,7,6123,18186,130296,18,6159
18186,2657,18198,140912,21,6137,18211,130288,6,6105
18211,3709,18223,140931,56,6127,18236,130334,34,6127
18236,1299,18248,141013,8,6142,18261,130405,17,6123
18261,368,18273,141045,16,6130,18287,130464,0,6108
18287,3247,18303,141151,6,6224,18317,130468,0,6130
18317,819,18333,141176,0,6146,18347,130475,0,6116
18347,3207,18359,141167,6,6183,18372,130354,0,6078
18372,3248,18384,141134,25,6197,18397,130290,0,6154
18397,780,18409,141131,28,6130,18422,130319,22,6145
18422,672,18434,141115,9,6186,18447,130331,19,6140
18447,3260,18459,141151,8,6242,18472,130383,16,6090
18472,3355,18484,141220,15,6264,18497,130507,18,6139
18497,841,18509,141313,6,6195,18523,130557,2,6125
18523,1075,18535,141387,15,6232,18548,130515,4,6106
18548,3735,18560,141476,30,6272,18573,130519,0,6066
18573,2818,18585,141541,46,6303,18598,130516,0,6166
18598,398,18610,141606,20,6295,18623,130518,4,6179
18623,1109,18635,141641,14,6345,18648,130500,9,6165
18648,4095,18660,141679,14,6399,18673,130532,15,6156
18673,2975,18685,141717,5,6396,18698,130585,26,6176
18698,149,18711,141762,1,6280,18723,130638,4,6177
18723,978,18736,141786,0,6368,18749,130668,2,6129
18749,4095,18761,141859,33,6419,18774,130686,0,6106
18774,2404,18786,141936,18,6475,18799,130718,0,6168
18799,16,18811,142006,8,6384,18824,130743,0,6177
18824,1609,18836,142045,24,6505,18849,130622,2,6149
18849,4095,18861,141857,4,6472,18874,130436,0,6161
18874,2415,18887,141548,7,6397,18899,130320,34,6143
18899,0,18912,141262,0,6217,18924,130193,10,6121
18924,1549,18937,141113,0,6271,18949,130190,7,6036
18949,4095,18962,141103,0,6280,18974,130144,12,6040
18974,2379,18987,141157,0,6289,19000,130163,9,6051
19000,36,19012,141276,4,6204,19025,130221,0,6042
19025,2241,19037,141344,16,6292,19050,130279,0,6013
19050,4095,19063,141381,6,6277,19075,130337,26,6081
19075,1808,19088,141401,0,6249,19100,130333,12,6108
19100,0,19113,141405,0,6215,19125,130339,22,6120
19125,2151,19138,141363,0,6354,19150,130373,9,6053
19150,4095,19163,141316,3,6329,19175,130410,10,6089
19175,1792,19188,141273,15,6305,19200,130432,6,6099
19200,0,19213,141331,19,6251,19226,130477,13,6094
19226,2903,19239,141497,0,6308,19251,130579,31,6021
19251,4057,19264,141566,1,6341,19276,130666,41,6094
19276,1136,19289,141609,0,6277,19301,130782,30,6139
19301,128,19314,141675,0,6347,19326,130898,20,6161
19326,2858,19339,141735,14,6463,19351,130953,25,6130
19351,3991,19364,141730,20,6461,19376,130995,23,6187
19376,1120,19389,141785,11,6371,19401,131067,8,6195
19401,112,19415,141871,0,6395,19426,131169,0,6181
19426,2832,19440,142008,0,6447,19451,131203,0,6142
19451,3959,19465,142057,0,6475,19477,131323,18,6183
19477,545,19490,141983,0,6434,19502,131426,23,6178
19502,494,19515,142034,0,6527,19527,131475,46,6187
19527,3568,19540,142058,22,6558,19552,131586,28,6169
19552,3443,19565,142116,13,6566,19577,131681,21,6254
19577,529,19591,142162,10,6419,19607,131717,0,6245
19607,3557,19621,141885,0,6507,19637,131546,20,6209
19637,531,19651,141606,0,6365,19662,131380,0,6165
19662,452,19676,141407,0,6426,19687,131364,0,6130
19687,3522,19701,141353,18,6414,19713,131438,24,6067
19713,2929,19726,141342,22,6385,19738,131520,33,6116
19738,112,19752,141438,21,6257,19768,131575,0,6127
19768,4095,19782,141592,0,6331,19798,131797,0,6200
19798,91,19812,141709,0,6230,19828,131889,0,6187
19828,4095,19842,141758,0,6368,19858,131940,7,6217
19858,92,19872,141707,18,6214,19888,131909,30,6159
19888,4095,19902,141599,31,6279,19913,131850,0,6140
19913,2880,19928,141581,29,6158,19944,131834,6,6159
19944,1535,19958,141601,0,6128,19974,131841,0,6097
19974,2378,19988,141743,0,6058,20004,131874,0,6146
20004,1535,20018,141898,0,6162,20034,131923,0,6126
20034,2351,20048,141966,15,6082,20064,131893,0,6174
20064,1517,20078,141965,12,6148,20094,131840,20,6125
20094,2342,20109,142009,8,6020,20124,131814,14,6160
20124,1510,20139,142030,0,6128,20154,131829,25,6080
20154,2324,20169,142052,0,6035,20185,131722,2,6081
20185,2133,20199,142190,13,6285,20215,131632,2,6007
20215,1781,20229,142222,6,6200,20245,131567,0,6025
20245,2135,20259,142229,22,6366,20275,131513,0,6012
20275,1773,20290,142291,0,6221,20305,131416,2,6011
20305,2112,20320,142105,2,6376,20335,131156,17,5942
20335,1783,20350,141741,0,6226,20365,130878,24,5905
20365,2105,20380,141498,0,6344,20395,130726,30,5848
20395,1787,20410,141455,28,6194,20426,130735,0,5841
20426,2821,20440,141525,17,6326,20456,130792,5,5837
20456,1137,20471,141619,9,6177,20486,130856,0,5890
20486,2799,20501,141684,0,6308,20516,130962,4,5933
20516,1127,20531,141775,0,6241,20546,130916,0,5971
20546,2800,20561,141778,0,6379,20576,130849,17,5980
20576,1138,20591,141722,7,6254,20606,130800,15,5982
20606,2809,20621,141692,6,6320,20636,130731,15,5986
20636,1129,20652,141685,0,6100,20667,130649,5,5947
20667,3513,20682,141762,0,6219,20697,130618,8,5962
20697,547,20712,141838,0,6124,20727,130620,0,5960
20727,3509,20742,141975,0,6295,20757,130617,0,5990
20757,563,20772,142023,19,6141,20787,130628,0,5993
20787,3472,20802,142079,23,6276,20817,130551,15,5982
20817,564,20833,142111,6,6089,20847,130476,14,5941
20847,3524,20863,142130,1,6278,20877,130452,18,5924
20877,579,20893,142175,0,6233,20908,130451,0,5853
20908,4095,20923,142230,5,6410,20938,130428,0,5865
20938,80,20953,142292,18,6332,20968,130427,0,5801
20968,4095,20984,142346,17,6459,20998,130520,0,5861
20998,73,21014,142384,0,6338,21028,130436,0,5825
21028,4095,21044,142114,0,6469,21058,130205,4,5818
21058,102,21074,141719,0,6381,21088,129998,17,5699
21088,4095,21104,141487,7,6423,21118,129914,24,5734
21118,128,21134,141448,26,6302,21149,129869,2,5622
21149,4095,21165,141496,19,6350,21179,129980,0,5740
21179,0,21195,141589,0,6288,21209,129973,0,5703
21209,4095,21225,141631,0,6410,21239,129977,0,5841
21239,13,21255,141703,0,6412,21269,129936,8,5813
21269,4095,21285,141701,20,6468,21299,129908,17,5901
21299,19,21315,141659,39,6416,21329,129876,5,5839
21329,4095,21346,141624,11,6414,21360,129879,16,5917
21360,0,21376,141638,8,6400,21390,129885,3,5841
21390,4095,21406,141695,0,6490,21420,129886,0,5942
21420,15,21436,141828,15,6524,21450,129914,0,5886
21450,4095,21466,141920,16,6561,21480,129908,0,5983
21480,16,21496,142002,13,6535,21510,129909,0,5950
21510,4095,21522,142040,0,6530,21535,129836,18,5986
21535,1855,21547,142085,35,6539,21560,129855,24,5991
21560,0,21572,142114,19,6437,21585,129931,0,5979
21585,2143,21597,142138,0,6630,21611,129971,3,5919
21611,4063,21627,142211,0,6638,21641,129969,0,5965
21641,122,21657,142225,8,6654,21671,130081,0,5920
21671,3999,21688,142272,5,6612,21701,130036,0,6024
21701,75,21713,142337,30,6497,21726,130028,8,6036
21726,2802,21738,142404,58,6643,21751,129920,7,5986
21751,4030,21763,142271,6,6692,21776,129815,5,6010
21776,1232,21788,141958,23,6611,21801,129633,24,5966
21801,144,21813,141603,4,6494,21826,129530,10,5943
21826,2855,21838,141410,7,6507,21852,129514,2,5867
21852,3497,21869,141359,0,6365,21882,129423,10,5903
21882,441,21894,141427,43,6330,21907,129436,0,5907
21907,3490,21919,141507,55,6430,21932,129458,0,5868
21932,3525,21944,141541,18,6483,21957,129428,3,5956
21957,656,21969,141574,31,6425,21982,129358,0,5960
21982,518,21994,141610,14,6445,22007,129405,11,5958
22007,3575,22019,141583,0,6495,22032,129391,22,5887
22032,3566,22045,141554,3,6454,22057,129433,5,5944
22057,609,22070,141506,2,6343,22083,129440,7,5923
22083,911,22095,141547,43,6417,22108,129452,6,5907
22108,4095,22120,141577,38,6511,22133,129479,2,5884
22133,3053,22145,141641,45,6537,22158,129524,0,5956
22158,223,22170,141738,12,6450,22183,129540,0,5968
22183,974,22195,141820,0,6516,22208,129546,0,5965
22208,4095,22221,141869,9,6524,22233,129644,19,5943
22233,3013,22246,141892,0,6549,22258,129672,11,6007
22258,154,22271,141924,0,6446,22283,129677,11,6006
22283,880,22296,141952,0,6606,22308,129705,4,5960
22308,4095,22321,142005,0,6631,22334,129709,1,5932
22334,2550,22346,142056,14,6648,22359,129717,0,5981
22359,28,22371,142087,5,6525,22384,129753,1,5993
22384,1526,22397,142142,0,6623,22409,129817,26,5965
22409,4095,22422,142189,8,6618,22434,129864,20,5999
22434,2482,22447,142213,0,6635,22459,129945,12,6059
22459,0,22472,142290,0,6614,22484,129914,9,6063
22484,1449,22497,142233,8,6729,22509,129814,11,5994
22509,4095,22522,141883,23,6688,22534,129613,9,5965
22534,2476,22547,141553,17,6574,22559,129453,9,5960
22559,0,22573,141332,11,6396,22585,129420,19,5934
22585,2069,22598,141291,0,6420,22610,129426,38,5871
22610,4095,22623,141321,0,6437,22635,129494,39,5931
22635,1910,22648,141391,4,6443,22660,129560,23,5977
22660,0,22673,141432,0,6391,22685,129567,27,6000
22685,2033,22698,141413,18,6512,22710,129618,7,5960
22710,4095,22723,141446,5,6496,22735,129653,5,5997
22735,1904,22749,141506,0,6412,22765,129683,14,5993
22765,2000,22779,141493,0,6449,22790,129696,0,5930
22790,4095,22804,141562,0,6472,22816,129733,0,5979
22816,1262,22829,141447,0,6437,22841,129797,27,5971
22841,71,22854,141486,8,6454,22866,129828,60,6005
22866,2713,22879,141492,22,6539,22891,129883,32,5946
22891,4095,22904,141575,25,6533,22916,129967,22,6039
22916,1245,22930,141721,7,6418,22946,130084,3,6064
22946,2688,22960,141795,0,6541,22976,130210,26,6081
22976,1253,22990,141939,0,6472,23006,130240,25,6070
23006,2677,23020,142004,0,6629,23031,130283,0,6021
23031,4040,23045,141957,24,6635,23057,130367,8,6065
23057,663,23070,141922,9,6496,23082,130411,33,6062
23082,400,23096,141961,3,6558,23112,130507,0,6025
23112,3537,23126,142070,6,6545,23142,130626,0,6109
23142,388,23156,142179,0,6523,23172,130681,0,6077
23172,3536,23186,142287,0,6577,23202,130877,14,6166
23202,368,23216,142367,6,6547,23232,131055,24,6119
23232,3518,23246,142354,11,6503,23257,131086,0,6159
23257,660,23272,142091,21,6245,23288,130924,23,6097
23288,4095,23302,141703,3,6250,23318,130754,0,6071
23318,198,23332,141461,0,6024,23348,130787,0,6051
23348,4095,23362,141471,0,6195,23378,130923,0,6088
23378,197,23392,141529,0,6030,23408,131003,0,6084
23408,4095,23422,141604,13,6209,23438,131137,9,6118
23438,186,23453,141682,17,6051,23468,131274,17,6099
23468,4089,23483,141708,0,6222,23498,131376,9,6115
23498,169,23513,141720,0,6135,23529,131501,11,6039
23529,4095,23543,141752,0,6367,23559,131632,6,6050
23559,0,23573,141714,28,6263,23589,131715,0,5993
23589,4095,23603,141678,0,6419,23619,131871,0,6107
23619,0,23634,141772,10,6289,23649,132026,0,6056
23649,4095,23664,141872,1,6445,23679,132183,15,6141
23679,0,23694,141965,0,6437,23709,132277,19,6088
23709,4095,23724,142080,0,6605,23739,132394,5,6188
23739,0,23754,142144,25,6551,23770,132488,3,6095
23770,4095,23784,142159,9,6623,23800,132555,0,6193
23800,0,23815,142170,0,6498,23830,132689,0,6177
23830,4095,23845,142207,0,6599,23860,132849,0,6332
23860,0,23875,142248,0,6586,23890,132939,0,6297
23890,4095,23905,142346,2,6618,23920,132917,16,6408
23920,0,23935,142444,18,6579,23950,132934,14,6324
23950,4095,23965,142488,7,6580,23980,132980,11,6421
23980,0,23996,142484,2,6466,24011,132877,3,6295
24011,4095,24026,142130,6,6468,24041,132612,3,6326
24041,16,24056,141800,0,6456,24071,132406,0,6198
24071,4062,24086,141704,12,6447,24101,132304,0,6298
24101,0,24116,141748,14,6429,24131,132301,0,6217
24131,4049,24147,141863,15,6428,24161,132286,9,6280
24161,0,24177,141964,0,6408,24191,132313,12,6173
24191,4048,24207,142019,0,6457,24221,132339,11,6239
24221,16,24237,142055,0,6571,24252,132260,0,6077
24252,3548,24267,142032,8,6597,24282,132140,7,6153
24282,304,24297,141983,5,6608,24312,132051,0,6014
24312,3535,24328,141992,12,6577,24342,132085,0,6138
24342,304,24358,142040,0,6600,24372,132086,0,6041
24372,3596,24388,142144,0,6654,24402,132018,21,6152
24402,530,24418,142264,4,6735,24432,131945,27,6027
24432,3428,24448,142371,22,6743,24462,131911,12,6127
24462,542,24478,142443,12,6788,24493,131895,0,6006
24493,2944,24509,142445,20,6721,24523,131963,1,6143
24523,878,24539,142487,0,6778,24553,131960,0,6112
24553,2975,24569,142526,15,6804,24583,131958,1,6255
24583,908,24599,142586,0,6903,24613,131891,11,6219
24613,3042,24629,142639,35,6846,24643,131816,20,6315
24643,912,24659,142704,30,6900,24673,131798,16,6261
24673,2991,24685,142768,25,6886,24698,131855,19,6328
24698,506,24710,142784,62,6815,24724,131796,0,6307
24724,1351,24740,142454,0,6919,24754,131555,0,6235
24754,2555,24770,142118,10,6807,24784,131329,0,6262
24784,1371,24800,141932,17,6852,24814,131161,0,6246
24814,2559,24830,141937,16,6711,24844,131122,0,6291
24844,1347,24861,142040,0,6783,24874,131028,11,6257
24874,2531,24886,142143,21,6802,24899,131068,21,6284
24899,235,24911,142192,32,6722,24924,131154,18,6269
24924,1375,24936,142229,0,6870,24950,131191,4,6226
24950,4095,24966,142252,2,6904,24980,131072,5,6242
24980,159,24996,142224,4,6889,25010,131044,0,6211
25010,4095,25027,142182,0,6855,25040,131004,0,6281
25040,111,25052,142167,20,6719,25065,130969,0,6293
25065,1847,25077,142251,52,6856,25090,130954,7,6256
25090,4095,25102,142317,1,6913,25115,131002,15,6276
25115,2113,25127,142389,14,6940,25140,131024,23,6302
25140,175,25152,142463,0,6857,25165,131153,15,6311
25165,1906,25177,142528,2,6945,25191,131273,10,6219
25191,3979,25208,142571,14,6925,25221,131198,5,6294
25221,187,25233,142619,27,6816,25246,131185,0,6298
25246,2370,25258,142636,42,6955,25271,131180,0,6272
25271,4010,25283,142655,11,7009,25296,131174,0,6344
25296,1586,25308,142686,7,6992,25321,131109,0,6338
25321,267,25333,142711,21,6960,25346,131122,12,6353
25346,2450,25358,142756,1,7029,25371,131135,21,6281
25371,4016,25384,142802,0,7007,25396,131192,0,6337
25396,1567,25409,142857,0,6966,25422,131230,0,6331
25422,461,25434,142940,54,6930,25447,131197,3,6310
25447,2962,25459,142881,26,7079,25472,131082,0,6248
25472,3589,25484,142525,15,7037,25497,130888,0,6299
25497,1075,25509,142195,9,6931,25522,130792,0,6296
25522,507,25534,141975,0,6851,25547,130677,6,6288
25547,2999,25560,141951,0,6861,25572,130702,6,6222
25572,3534,25585,142005,0,6836,25597,130755,11,6292
25597,1022,25610,142082,0,6786,25622,130722,0,6288
25622,454,25635,142136,0,6871,25648,130740,12,6274
25648,3513,25660,142196,25,6943,25673,130770,3,6202
25673,3155,25685,142218,15,6922,25698,130817,0,6284
25698,640,25710,142215,0,6828,25723,130841,0,6273
25723,867,25736,142203,13,6856,25748,130880,30,6306
25748,3453,25761,142170,0,6865,25773,130920,8,6272
25773,3084,25786,142153,0,6897,25798,130953,27,6325
25798,583,25811,142172,0,6850,25823,131024,20,6349
25823,799,25836,142206,9,6929,25848,131119,7,6332
25848,3397,25861,142248,18,6959,25873,131187,3,6293
25873,3088,25886,142318,17,6959,25899,131200,0,6348
25899,315,25912,142460,7,6820,25924,131257,47,6328
25924,1278,25937,142503,1,6935,25949,131277,64,6319
25949,3918,25962,142562,0,6960,25974,131307,25,6318
25974,2631,25987,142566,0,7018,25999,131352,9,6402
25999,278,26012,142577,2,6920,26024,131404,26,6413
26024,1247,26037,142533,20,7027,26049,131402,19,6378
26049,3873,26062,142609,0,7028,26074,131418,17,6383
26074,2626,26088,142697,0,6991,26099,131477,0,6403
26099,274,26113,142805,0,6908,26125,131456,0,6394
26125,1776,26138,142756,0,7029,26150,131523,19,6356
26150,4095,26163,142830,0,7104,26175,131591,48,6369
26175,2160,26188,142877,0,7102,26200,131636,56,6415
26200,137,26213,142788,16,7006,26225,131515,33,6444
26225,1730,26238,142487,19,7053,26250,131369,24,6383
26250,4095,26264,142238,0,6954,26280,131274,17,6390
26280,125,26294,141968,0,6776,26310,131198,23,6330
26310,4089,26324,142005,0,6906,26335,131202,0,6342
26335,2148,26349,142037,0,6871,26361,131263,0,6363
26361,189,26374,142046,19,6851,26386,131317,37,6349
26386,2269,26399,142083,17,6900,26411,131375,31,6295
26411,3999,26425,142103,7,6875,26441,131393,0,6375
26441,163,26455,142201,2,6776,26471,131404,0,6339
26471,4007,26485,142219,0,6820,26501,131422,0,6418
26501,144,26515,142244,0,6778,26531,131492,34,6335
26531,3988,26545,142209,15,6798,26561,131545,21,6396
26561,141,26575,142221,2,6715,26586,131520,0,6387
26586,2226,26601,142250,11,6684,26617,131562,3,6358
26617,1115,26631,142338,0,6490,26647,131589,0,6375
26647,2810,26661,142476,3,6615,26677,131661,0,6377
26677,1111,26691,142598,0,6495,26707,131755,0,6433
26707,2823,26721,142611,9,6645,26737,131786,0,6427
26737,1078,26751,142607,8,6459,26767,131781,11,6432
26767,2784,26782,142639,2,6564,26797,131743,18,6403
26797,1094,26812,142644,15,6381,26827,131730,22,6377
26827,2798,26842,142700,0,6636,26858,131783,0,6352
26858,625,26872,142844,0,6574,26888,131802,0,6337
26888,3355,26902,142887,28,6788,26918,131830,0,6342
26918,640,26932,142892,0,6652,26948,131899,0,6355
26948,3319,26963,142982,1,6799,26978,132013,5,6371
26978,624,26993,142973,0,6680,27008,132027,8,6351
27008,3309,27023,142631,0,6884,27038,131811,7,6308
27038,623,27053,142250,0,6739,27069,131651,17,6234
27069,3854,27083,142060,17,6855,27099,131579,0,6220
27099,286,27113,142059,20,6677,27129,131548,0,6206
27129,3830,27144,142177,9,6785,27159,131594,0,6298
27159,239,27174,142287,0,6688,27189,131660,0,6292
27189,3846,27204,142350,0,6871,27219,131746,10,6361
27219,240,27234,142420,9,6804,27249,131791,20,6334
27249,3807,27264,142413,11,6864,27279,131851,1,6388
27279,241,27295,142356,20,6727,27310,131929,0,6349
27310,4095,27325,142327,6,6753,27340,132029,0,6411
27340,45,27355,142364,0,6670,27370,132084,0,6386
27370,4095,27385,142467,3,6803,27400,132171,0,6497
27400,50,27415,142600,11,6735,27430,132320,0,6466
27430,4095,27445,142687,17,6800,27460,132447,13,6546
27460,48,27476,142744,19,6694,27490,132515,11,6482
27490,4095,27506,142757,4,6714,27520,132619,13,6521
27520,96,27536,142765,0,6702,27551,132714,16,6424
27551,4053,27566,142831,0,6828,27581,132870,12,6517
27581,81,27596,142887,6,6833,27611,133073,0,6438
27611,4032,27626,142910,8,6868,27641,133275,0,6565
27641,79,27657,142960,0,6845,27671,133512,0,6494
27671,3996,27687,142978,0,6886,27701,133615,20,6605
27701,131,27717,143051,0,6941,27731,133702,8,6489
27731,4072,27747,143148,0,7055,27762,133959,11,6582
27762,317,27777,143232,18,7075,27792,134128,3,6428
27792,3614,27807,143074,2,7053,27822,134090,0,6557
27822,309,27838,142616,0,6981,27852,134039,0,6422
27852,3630,27868,142292,6,6956,27882,133873,0,6563
27882,348,27898,142226,0,6986,27912,133896,6,6480
27912,3673,27928,142377,0,7030,27942,134061,30,6640
27942,368,27958,142537,16,7075,27972,134237,14,6548
27972,3689,27988,142605,30,7035,28003,134348,3,6657
28003,654,28019,142683,13,7023,28033,134322,0,6595
28033,3197,28049,142662,2,7009,28063,134341,0,6744
28063,675,28079,142589,11,7103,28093,134361,0,6735
28093,3248,28109,142569,18,7069,28123,134321,0,6840
28123,699,28139,142540,27,7114,28153,134231,10,6787
28153,3244,28169,142593,30,7044,28183,134107,23,6843
28183,661,28195,142671,35,7010,28208,134036,2,6819
28208,3270,28220,142752,65,7099,28234,134085,1,6764
28234,2781,28250,142817,0,7082,28264,134021,3,6815
28264,1107,28280,142917,8,7184,28294,133957,1,6754
28294,2842,28310,142942,16,7127,28324,133892,0,6841
28324,1093,28340,142983,0,7192,28354,133850,1,6811
28354,2800,28366,142974,14,7161,28379,133670,3,6861
28379,330,28391,142987,36,7055,28404,133590,17,6839
28404,1090,28416,143005,0,7185,28429,133605,21,6805
28429,3875,28441,143039,0,7260,28454,133688,17,6771
28454,2859,28466,143084,0,7269,28480,133778,7,6822
28480,158,28496,143181,6,7255,28510,133835,0,6804
28510,4095,28527,143223,0,7243,28540,133649,0,6812
28540,118,28552,143092,24,7093,28565,133483,0,6834
28565,1600,28577,142779,47,7185,28590,133226,0,6750
28590,4095,28602,142462,0,7197,28615,133033,22,6746
28615,2352,28627,142349,20,7184,28640,133017,15,6753
28640,192,28652,142370,10,7081,28665,133036,0,6716
28665,1654,28677,142469,16,7179,28691,133075,8,6660
28691,4095,28708,142600,1,7144,28721,132994,0,6686
28721,122,28733,142683,44,7041,28746,133114,0,6710
28746,2131,28758,142764,24,7174,28771,133105,0,6666
28771,4095,28783,142775,16,7220,28796,133104,0,6731
28796,1840,28808,142738,20,7221,28821,133075,0,6760
28821,185,28833,142695,17,7138,28846,133052,0,6762
28846,2202,28858,142644,4,7202,28871,133060,29,6692
28871,4095,28884,142637,1,7172,28896,133126,0,6745
28896,1799,28909,142667,0,7151,28921,133168,7,6764
28921,96,28934,142745,1,7092,28947,133229,0,6733
28947,2768,28959,142869,12,7270,28972,133283,0,6683
28972,3884,28984,142936,34,7285,28997,133323,0,6756
28997,1308,29009,142993,11,7231,29022,133396,0,6787
29022,358,29034,143057,10,7190,29047,133376,1,6826
29047,2783,29060,143096,0,7242,29072,133450,22,6754
29072,3777,29085,143080,0,7246,29097,133469,12,6835
29097,1210,29110,143090,0,7205,29122,133431,2,6820
29122,288,29135,143101,9,7269,29147,133432,5,6815
29147,2736,29160,143102,14,7337,29173,133436,0,6742
29173,3369,29185,143186,20,7326,29198,133402,2,6778
29198,777,29210,143234,5,7241,29223,133389,0,6800
29223,680,29236,143293,13,7247,29248,133437,45,6815
29248,3265,29261,143333,0,7300,29273,133385,9,6769
29273,3265,29286,143241,0,7325,29298,133216,13,6817
29298,733,29311,142874,0,7229,29323,133027,10,6766
29323,640,29336,142505,10,7258,29348,132861,17,6742
29348,3231,29361,142289,40,7226,29373,132744,0,6633
29373,3255,29386,142283,20,7184,29399,132674,2,6663
29399,400,29412,142413,0,7054,29424,132725,26,6649
29424,1073,29437,142508,0,7171,29449,132791,53,6646
29449,3773,29462,142608,0,7220,29474,132820,28,6610
29474,2801,29487,142632,0,7252,29499,132879,18,6692
29499,347,29512,142650,5,7160,29524,132891,25,6718
29524,1061,29537,142614,13,7263,29549,132908,22,6705
29549,3733,29562,142578,4,7235,29574,132949,13,6677
29574,2791,29588,142625,3,7186,29599,132971,0,6700
29599,353,29613,142671,0,7092,29624,133001,0,6696
29624,1058,29638,142691,0,7240,29650,133026,9,6658
29650,4095,29663,142654,0,7280,29675,133069,34,6644
29675,2327,29688,142712,11,7285,29700,133095,57,6685
29700,144,29713,142745,30,7164,29725,133180,22,6730
29725,1546,29739,142842,5,7274,29755,133204,0,6729
29755,2320,29769,142938,0,7228,29785,133188,12,6748
29785,1533,29799,143044,0,7276,29815,133209,26,6733
29815,2347,29829,143128,0,7289,29840,133217,0,6743
29840,115,29854,143038,8,7237,29866,133220,7,6725
29866,2109,29879,142971,23,7325,29891,133280,35,6675
29891,4095,29904,143020,8,7282,29916,133330,42,6701
29916,1794,29930,143128,6,7170,29946,133252,0,6719
29946,2096,29960,143161,0,7202,29976,133346,0,6751
29976,1795,29990,143340,0,7127,30006,133397,0,6761
30006,2078,30020,143214,0,7202,30036,133218,9,6720
30036,1782,30050,142764,20,6980,30066,132954,28,6681
30066,2065,30080,142376,8,6936,30091,132809,0,6544
30091,4075,30106,142272,0,6839,30122,132760,24,6564
30122,283,30136,142301,0,6730,30152,132728,1,6461
30152,3764,30166,142498,0,6814,30182,132761,0,6534
30182,269,30196,142600,0,6798,30212,132811,0,6486
30212,3720,30226,142621,22,6856,30242,132901,0,6586
30242,258,30256,142595,13,6807,30272,132990,11,6491
30272,3673,30287,142542,0,6804,30302,133010,24,6542
30302,261,30317,142500,5,6819,30332,133003,16,6414
30332,3665,30347,142496,0,6933,30363,133118,0,6479
30363,624,30377,142619,1,6988,30393,133153,9,6359
30393,3277,30407,142667,26,7033,30423,133162,0,6462
30423,603,30437,142726,1,7041,30453,133289,9,6395
30453,3212,30468,142814,1,7011,30483,133347,0,6507
30483,613,30498,142855,0,7081,30513,133369,23,6415
30513,3198,30528,142906,0,7159,30543,133405,20,6496
30543,602,30558,142948,19,7202,30573,133478,18,6418
30573,3205,30588,142980,27,7191,30604,133460,0,6499
30604,1040,30619,142991,2,7204,30634,133465,0,6430
30634,2785,30649,143017,7,7100,30664,133474,0,6557
30664,1038,30679,143082,0,7176,30694,133485,0,6532
30694,2779,30709,143166,0,7177,30724,133597,4,6661
30724,1023,30739,143174,8,7222,30754,133494,20,6584
30754,2773,30769,142808,31,7100,30784,133220,11,6581
30784,1019,30800,142417,28,7022,30815,132921,0,6456
30815,2294,30830,142223,0,6838,30845,132839,0,6483
30845,1549,30860,142264,0,6939,30875,132837,0,6407
30875,2292,30890,142398,0,6872,30905,132830,0,6505
30905,1521,30920,142504,16,6988,30935,132865,0,6467
30935,2296,30950,142562,16,6836,30965,132965,10,6509
30965,1550,30981,142566,0,6917,30995,132972,20,6460
30995,2288,31011,142516,4,6775,31025,132955,8,6469
31025,1565,31041,142480,0,6966,31056,132931,0,6385
31056,1761,31071,142486,0,6904,31086,132924,11,6404
31086,2069,31101,142538,17,7064,31116,133021,0,6343
31116,1754,31131,142640,19,6943,31146,133127,0,6403
31146,2087,31162,142711,0,7062,31176,133216,3,6384
31176,1747,31192,142804,0,6945,31206,133229,14,6420
31206,2125,31222,142849,0,7183,31236,133241,32,6343
31236,1819,31252,142932,0,7103,31266,133265,9,6375
31266,2160,31282,142985,19,7258,31297,133318,13,6344
31297,1190,31312,143006,14,7122,31327,133352,3,6366
31327,2715,31343,143012,2,7224,31357,133525,0,6401
31357,1199,31373,143029,6,7114,31387,133546,0,6488
31387,2736,31403,143080,0,7326,31417,133551,0,6524
31417,1233,31433,143198,6,7236,31447,133658,17,6582
31447,2775,31463,143236,19,7354,31477,133602,33,6585
31477,1225,31494,142897,33,7206,31507,133356,12,6566
31507,2739,31519,142578,54,7241,31533,133214,11,6432
31533,3215,31549,142295,9,7184,31563,133034,0,6484
31563,657,31579,142311,19,7286,31593,133096,0,6430
31593,3259,31609,142455,27,7245,31623,133205,1,6557
31623,695,31639,142587,35,7301,31653,133289,0,6526
31653,3246,31670,142642,35,7241,31683,133292,13,6606
31683,656,31695,142705,23,7195,31708,133295,18,6584
31708,3312,31720,142700,63,7283,31733,133394,6,6547
31733,3248,31745,142658,31,7351,31759,133485,0,6581
31759,347,31775,142629,0,7310,31789,133475,0,6545
31789,3897,31805,142625,0,7383,31819,133588,0,6583
31819,346,31835,142681,0,7315,31849,133629,0,6593
31849,3838,31861,142764,10,7344,31874,133634,0,6615
31874,2769,31886,142859,12,7357,31899,133756,18,6670
31899,320,31911,142954,48,7259,31924,133868,24,6692
31924,1143,31936,142996,0,7391,31949,134024,11,6671
31949,3945,31961,143061,2,7428,31974,134208,8,6657
31974,2850,31986,143092,6,7445,32000,134354,0,6693
32000,128,32016,143111,9,7422,32030,134455,0,6672
32030,4095,32042,143127,23,7403,32055,134493,0,6690
32055,2263,32067,143130,61,7416,32080,134568,0,6781
32080,108,32092,143169,36,7329,32105,134629,9,6799
32105,1659,32117,143195,11,7477,32130,134707,4,6771
32130,4095,32142,143263,9,7497,32155,134853,9,6825
32155,2346,32167,143336,9,7491,32180,135011,20,6828
32180,163,32193,143279,4,7344,32205,135047,7,6836
32205,1575,32218,142957,0,7417,32231,134874,5,6697
32231,4095,32243,142635,75,7384,32256,134663,2,6671
32256,1778,32268,142469,25,7396,32281,134531,0,6694
32281,11,32293,142458,5,7333,32306,134594,0,6705
32306,2285,32318,142561,12,7452,32331,134634,0,6666
32331,4095,32343,142670,4,7445,32356,134637,0,6737
32356,1783,32369,142792,5,7396,32381,134832,6,6762
32381,0,32394,142846,0,7285,32406,134930,15,6762
32406,2224,32419,142890,0,7431,32431,134935,0,6688
32431,4095,32444,142863,0,7475,32457,134890,4,6736
32457,1189,32469,142826,15,7445,32482,134895,0,6738
32482,368,32494,142768,22,7422,32507,134902,0,6733
32507,2893,32519,142757,8,7477,32532,134857,0,6665
32532,3809,32545,142808,10,7472,32557,134898,1,6776
32557,1171,32570,142850,3,7351,32582,134925,22,6785
32582,320,32595,142910,0,7383,32607,134988,12,6798
32607,2815,32620,143016,0,7516,32632,135023,19,6747
32632,3725,32645,143090,0,7552,32657,134976,0,6801
32657,1146,32670,143097,17,7455,32682,134936,4,6800
32682,307,32695,143101,20,7476,32708,134901,6,6797
32708,3450,32721,143196,0,7500,32733,134863,46,6700
32733,3246,32746,143195,0,7489,32758,134824,41,6797
32758,646,32771,143189,0,7390,32783,134727,5,6813
32783,683,32796,143225,0,7520,32808,134609,11,6807
32808,3366,32821,143261,11,7578,32833,134569,14,6756
32833,3189,32846,143267,13,7584,32858,134537,24,6817
32858,641,32871,143277,7,7457,32883,134377,28,6773
32883,685,32897,143124,0,7502,32908,134122,0,6699
32908,3325,32922,142864,0,7458,32934,133753,7,6584
32934,2743,32947,142556,0,7451,32959,133495,26,6581
32959,305,32972,142456,0,7368,32984,133365,68,6560
32984,1158,32997,142503,0,7500,33009,133315,46,6547
33009,3871,33022,142559,23,7518,33034,133308,5,6544
33034,2721,33047,142700,20,7499,33059,133333,27,6602
33059,268,33073,142809,0,7362,33089,133409,5,6583
33089,3891,33103,142897,0,7494,33119,133425,17,6602
33119,262,33133,142951,0,7407,33144,133362,0,6586
33144,1136,33158,142879,0,7529,33170,133319,21,6526
33170,4095,33183,142727,13,7537,33195,133294,36,6517
33195,2224,33208,142690,28,7517,33220,133297,69,6562
33220,75,33234,142759,20,7405,33250,133306,0,6548
33250,4095,33264,142855,0,7482,33280,133403,0,6609
33280,64,33294,143015,0,7398,33310,133439,18,6578
33310,4095,33324,143174,0,7543,33340,133455,27,6620
33340,64,33354,143229,24,7419,33365,133478,0,6624
33365,1664,33379,143202,25,7493,33391,133498,0,6555
33391,4095,33404,143136,9,7455,33416,133519,32,6567
33416,1641,33430,143234,0,7268,33446,133448,0,6600
33446,2247,33460,143216,0,7309,33476,133441,0,6585
33476,1653,33490,143342,0,7191,33506,133403,0,6640
33506,2243,33520,143391,0,7286,33536,133537,0,6612
33536,1632,33550,143412,33,7116,33566,133530,13,6638
33566,2251,33580,143231,20,7173,33591,133292,0,6505
33591,4034,33606,142868,5,7076,33621,132974,8,6496
33621,76,33636,142495,2,6962,33652,132717,0,6345
33652,3634,33666,142438,9,7061,33682,132663,0,6405
33682,330,33696,142486,0,7079,33712,132687,0,6321
33712,3599,33726,142570,6,7156,33742,132672,0,6423
33742,334,33756,142665,16,7139,33772,132725,0,6324
33772,3578,33787,142664,0,7145,33802,132792,27,6414
33802,320,33817,142688,0,7186,33832,132827,20,6301
33832,3550,33847,142664,0,7279,33863,132737,8,6350
33863,722,33877,142695,15,7314,33893,132689,9,6203
33893,3115,33907,142643,10,7348,33923,132659,0,6305
33923,707,33938,142663,4,7341,33953,132738,0,6248
33953,3087,33968,142747,0,7325,33983,132824,0,6392
33983,708,33998,142841,0,7382,34013,132909,22,6325
34013,3083,34028,142932,0,7449,34043,132960,26,6436
34043,705,34058,142996,17,7472,34073,133003,6,6360
34073,3071,34088,143026,19,7417,34104,132970,0,6446
34104,1213,34119,143031,7,7409,34134,133019,2,6380
34134,2624,34149,143052,0,7335,34164,133024,0,6493
34164,1185,34179,143055,0,7382,34194,132981,0,6473
34194,2626,34209,143121,0,7339,34224,133077,0,6573
34224,1168,34239,143203,11,7399,34254,133102,3,6530
34254,2624,34269,143168,16,7257,34284,132916,36,6556
34284,1181,34300,142749,7,7235,34314,132537,23,6425
34314,2638,34330,142353,0,7021,34345,132280,0,6404
34345,1721,34360,142170,0,7130,34375,132220,5,6329
34375,2111,34390,142210,0,7029,34405,132231,0,6364
34405,1707,34420,142327,10,7164,34435,132235,7,6339
34435,2097,34450,142358,6,7019,34465,132281,0,6403
34465,1719,34481,142393,1,7138,34495,132347,11,6352
34495,2138,34511,142385,0,6993,34525,132344,20,6367
34525,1756,34541,142383,0,7236,34555,132317,3,6291
34555,2154,34571,142386,0,7129,34586,132341,7,6279
34586,2327,34601,142365,15,7304,34616,132396,0,6216
34616,1552,34631,142392,12,7156,34646,132451,0,6259
34646,2323,34662,142475,0,7272,34676,132593,0,6255
34676,1567,34692,142543,0,7163,34706,132652,1,6295
34706,2373,34722,142642,0,7392,34736,132719,20,6311
34736,1587,34752,142734,0,7290,34766,132799,26,6341
34766,2409,34782,142751,29,7433,34797,132883,19,6330
34797,981,34813,142755,21,7313,34827,132908,6,6367
34827,2947,34843,142775,0,7388,34857,133024,2,6385
34857,989,34873,142793,0,7304,34887,133081,0,6471
34887,2960,34903,142832,0,7506,34917,133085,0,6504
34917,1029,34933,142944,18,7411,34947,133108,14,6554
34947,3022,34963,142978,42,7519,34977,133060,20,6543
34977,983,34994,142791,34,7382,35007,132751,27,6508
35007,2975,35019,142417,48,7410,35033,132584,3,6381
35033,3083,35049,142034,3,7315,35063,132357,0,6409
35063,800,35079,141955,18,7382,35093,132361,0,6347
35093,3117,35109,142034,28,7321,35123,132418,0,6449
35123,831,35139,142141,30,7381,35153,132443,0,6404
35153,3087,35170,142167,0,7277,35183,132361,9,6466
35183,790,35195,142228,29,7280,35208,132432,14,6452
35208,3569,35220,142233,44,7348,35233,132509,6,6404
35233,3105,35245,142208,4,7405,35259,132612,8,6447
35259,208,35275,142190,0,7364,35289,132576,7,6407
35289,4095,35305,142155,0,7405,35319,132694,0,6440
35319,183,35335,142190,8,7344,35349,132784,0,6430
35349,4095,35361,142251,18,7358,35374,132705,0,6459
35374,2579,35386,142313,32,7382,35399,132737,0,6515
35399,177,35411,142381,27,7316,35424,132836,23,6529
35424,1340,35436,142466,9,7436,35449,132890,28,6477
35449,4095,35461,142497,7,7459,35474,133072,15,6481
35474,2646,35486,142534,13,7476,35500,133218,0,6527
35500,79,35517,142549,9,7415,35530,133153,0,6465
35530,4095,35542,142569,35,7412,35555,133192,0,6503
35555,2083,35567,142600,53,7443,35580,133208,0,6547
35580,70,35592,142631,21,7395,35605,133220,0,6577
35605,1906,35617,142664,28,7499,35630,133179,3,6535
35630,4095,35642,142720,3,7521,35655,133271,18,6573
35655,2125,35667,142784,7,7501,35680,133374,13,6614
35680,110,35693,142824,2,7389,35705,133437,5,6606
35705,1903,35718,142693,0,7456,35731,133249,0,6504
35731,3995,35743,142366,70,7442,35756,132924,0,6470
35756,1481,35768,142049,25,7401,35781,132681,0,6447
35781,208,35793,141872,18,7319,35806,132587,0,6432
35806,2558,35818,141852,12,7405,35831,132664,0,6394
35831,4095,35843,141956,4,7397,35856,132712,1,6465
35856,1489,35869,142056,11,7320,35881,132839,13,6477
35881,196,35894,142119,3,7234,35906,132932,13,6504
35906,2501,35919,142143,4,7360,35931,132941,28,6431
35931,3983,35944,142187,0,7416,35956,132949,1,6483
35956,1451,35969,142151,0,7376,35982,132967,9,6479
35982,537,35994,142138,13,7354,36007,132980,0,6471
36007,3184,36019,142107,12,7410,36032,133075,0,6424
36032,3550,36045,142095,13,7380,36057,133226,29,6513
36057,916,36070,142141,4,7284,36082,133295,14,6542
36082,467,36095,142223,0,7322,36107,133399,18,6590
36107,3118,36120,142306,0,7438,36132,133495,17,6530
36132,3456,36145,142384,0,7455,36157,133549,23,6587
36157,859,36170,142393,5,7368,36182,133652,3,6601
36182,466,36195,142419,10,7433,36208,133771,8,6605
36208,3757,36221,142548,7,7452,36233,133857,29,6540
36233,3011,36246,142556,2,7413,36258,133895,48,6619
36258,433,36271,142551,0,7336,36283,133908,47,6634
36283,907,36296,142580,0,7467,36308,133963,22,6674
36308,3667,36321,142599,0,7519,36333,134068,24,6648
36333,2970,36346,142585,20,7534,36358,134166,16,6709
36358,430,36371,142616,12,7402,36383,134278,17,6732
36383,907,36397,142715,10,7487,36408,134400,0,6721
36408,3680,36422,142881,0,7458,36433,134493,0,6705
36433,2958,36447,142836,0,7481,36459,134419,25,6727
36459,153,36472,142404,0,7394,36484,134193,35,6666
36484,1426,36497,142067,0,7488,36509,133954,57,6600
36509,4095,36522,141873,28,7459,36534,133880,26,6592
36534,2447,36547,141824,16,7426,36559,133904,8,6644
36559,132,36573,141971,6,7292,36589,133987,12,6613
36589,4095,36603,142152,0,7408,36619,134077,18,6672
36619,129,36633,142296,0,7328,36644,134131,0,6663
36644,1404,36658,142349,2,7468,36669,134171,0,6623
36669,4095,36683,142334,20,7487,36695,134136,17,6630
36695,1948,36708,142206,31,7427,36720,134114,36,6642
36720,40,36733,142129,5,7369,36745,134059,53,6650
36745,1968,36759,142192,3,7393,36775,134029,0,6651
36775,1938,36789,142217,0,7305,36805,134059,0,6693
36805,1950,36819,142362,0,7420,36835,134036,18,6663
36835,1927,36849,142446,0,7319,36865,134035,36,6689
36865,1952,36879,142522,9,7358,36890,134027,0,6617
36890,4095,36904,142552,21,7310,36916,134079,9,6664
36916,1328,36930,142586,0,7084,36946,134075,0,6661
36946,2603,36960,142594,0,7178,36976,133994,0,6660
36976,1334,36990,142713,0,7033,37006,133937,0,6699
37006,2576,37020,142712,0,7191,37036,133865,0,6691
37036,1297,37050,142714,21,6998,37066,133799,3,6692
37066,2594,37080,142712,6,7126,37096,133797,17,6679
37096,1298,37111,142776,0,6868,37126,133774,14,6647
37126,2590,37141,142748,0,7063,37157,133544,7,6596
37157,789,37171,142525,2,6971,37187,133171,0,6501
37187,3216,37201,142114,0,7147,37217,132817,0,6458
37217,772,37231,141935,20,6998,37247,132676,0,6438
37247,3157,37261,141959,14,7146,37277,132593,0,6439
37277,753,37292,142079,0,6995,37307,132598,15,6406
37307,3173,37322,142154,5,7205,37337,132592,38,6397
37337,738,37352,142255,0,7153,37367,132519,12,6350
37367,3184,37382,142308,5,7351,37398,132410,4,6322
37398,349,37412,142262,19,7233,37428,132247,3,6273
37428,3760,37443,142192,27,7336,37458,132177,0,6306
37458,337,37473,142152,0,7168,37488,132134,0,6316
37488,3737,37503,142198,0,7347,37518,132142,9,6395
37518,304,37533,142331,1,7296,37548,132172,18,6371
37548,3717,37563,142451,5,7432,37578,132175,43,6431
37578,306,37593,142539,12,7292,37608,132154,13,6396
37608,3769,37624,142570,4,7331,37639,132163,0,6450
37639,73,37654,142588,0,7193,37669,132100,0,6405
37669,4095,37684,142623,0,7314,37699,132069,0,6475
37699,51,37714,142632,0,7236,37729,132079,0,6464
37729,4095,37744,142661,8,7310,37759,132044,0,6504
37759,46,37774,142699,8,7185,37789,132046,17,6461
37789,4095,37805,142746,0,7201,37819,132074,11,6496
37819,49,37835,142754,2,7133,37850,131974,15,6393
37850,4095,37865,142488,0,7229,37880,131681,1,6388
37880,35,37895,142058,0,7184,37910,131328,0,6236
37910,4095,37925,141765,15,7201,37940,131174,0,6312
37940,39,37955,141721,15,7141,37970,131134,0,6215
37970,4076,37986,141797,0,7131,38000,131135,17,6278
38000,63,38016,141873,0,7163,38030,131098,24,6160
38030,4095,38046,141910,0,7259,38060,131103,19,6229
38060,102,38076,141968,0,7299,38091,131058,15,6084
38091,3690,38106,141975,12,7313,38121,131020,11,6174
38121,246,38137,141914,14,7306,38151,131117,0,6046
38151,3696,38167,141875,0,7250,38181,131087,0,6214
38181,276,38197,141872,0,7286,38211,131054,0,6151
38211,3696,38227,141960,2,7368,38241,131090,6,6291
38241,326,38257,142059,11,7393,38271,131103,28,6218
38271,3730,38287,142149,40,7386,38301,131127,16,6327
38301,307,38318,142213,24,7374,38332,131088,0,6258
38332,3205,38348,142228,9,7322,38362,131101,0,6368
38362,651,38378,142239,0,7398,38392,131142,0,6340
38392,3231,38408,142258,17,7414,38422,131185,0,6465
38422,695,38438,142323,31,7475,38452,131187,0,6440
38452,3250,38468,142348,25,7404,38482,131149,20,6513
38482,672,38499,142372,15,7447,38512,131085,36,6459
38512,3218,38524,142438,56,7440,38537,131221,20,6508
38537,630,38549,142415,38,7354,38563,131239,2,6488
38563,1149,38579,142068,0,7467,38593,130961,7,6384
38593,2795,38609,141666,15,7328,38623,130732,0,6405
38623,1157,38639,141414,5,7330,38653,130632,0,6349
38653,2748,38670,141401,1,7166,38683,130523,0,6430
38683,1123,38695,141475,15,7207,38708,130558,12,6385
38708,3969,38720,141532,26,7247,38733,130611,17,6390
38733,2752,38745,141557,2,7315,38758,130709,0,6421
38758,285,38770,141575,18,7205,38783,130833,19,6421
38783,1243,38795,141589,2,7310,38809,130850,0,6360
38809,4095,38825,141563,5,7288,38839,130883,0,6400
38839,57,38851,141524,6,7130,38864,130893,0,6420
38864,1711,38876,141487,42,7235,38889,130931,0,6396
38889,4095,38901,141513,39,7279,38914,130941,0,6437
38914,2224,38926,141577,0,7301,38939,130978,4,6474
38939,110,38951,141616,13,7219,38964,131065,15,6481
38964,1793,38976,141687,19,7320,38989,131176,26,6436
38989,4095,39001,141751,7,7309,39014,131345,5,6458
39014,2205,39027,141794,7,7269,39040,131290,8,6454
39040,126,39052,141834,50,7179,39065,131364,1,6473
39065,2333,39077,141863,34,7325,39090,131419,0,6442
39090,4095,39102,141872,17,7370,39115,131461,0,6497
39115,1669,39127,141882,29,7358,39140,131443,2,6535
39140,192,39152,141896,0,7270,39165,131404,0,6531
39165,2394,39177,141945,2,7367,39190,131450,24,6482
39190,4095,39203,141980,3,7314,39215,131593,20,6539
39215,1570,39228,142039,0,7307,39240,131706,4,6528
39240,137,39253,142074,0,7283,39266,131722,0,6539
39266,2992,39278,141951,16,7399,39291,131547,0,6437
39291,3702,39303,141616,26,7351,39316,131384,0,6483
39316,1078,39328,141294,21,7202,39341,131225,0,6451
39341,464,39353,141124,7,7109,39366,131158,0,6466
39366,3006,39379,141099,3,7122,39391,131233,13,6412
39391,3577,39404,141139,0,7132,39416,131285,2,6463
39416,967,39429,141202,0,7084,39441,131319,15,6472
39441,416,39454,141224,5,7144,39466,131344,1,6457
39466,2976,39479,141218,12,7198,39492,131369,5,6401
39492,3170,39504,141303,15,7184,39517,131410,5,6443
39517,579,39529,141284,5,7055,39542,131434,7,6442
39542,845,39555,141265,18,7069,39567,131457,47,6449
39567,3582,39580,141219,0,7120,39592,131460,34,6421
39592,3056,39605,141232,0,7153,39617,131507,9,6497
39617,487,39630,141268,0,7083,39642,131549,14,6494
39642,817,39655,141297,10,7181,39667,131622,3,6506
39667,3569,39680,141321,23,7204,39692,131693,21,6462
39692,3029,39705,141428,8,7183,39717,131792,1,6529
39717,463,39731,141565,0,7042,39743,131860,4,6504
39743,1340,39756,141567,0,7169,39768,131923,42,6474
39768,4095,39781,141595,0,7216,39793,131934,68,6475
39793,2544,39806,141604,0,7264,39818,131965,21,6547
39818,164,39831,141624,29,7156,39843,132047,12,6582
39843,1356,39856,141618,21,7266,39868,132105,21,6563
39868,4095,39882,141662,20,7243,39898,132236,10,6612
39898,153,39912,141760,2,7104,39928,132274,26,6574
39928,4095,39942,141879,0,7253,39953,132385,2,6579
39953,2455,39967,141978,0,7286,39979,132480,6,6613
39979,74,39992,141906,0,7216,40004,132498,31,6603
40004,1936,40017,141613,17,7302,40029,132386,62,6554
40029,4095,40042,141289,18,7241,40054,132215,35,6538
40054,1967,40068,141077,0,7104,40084,132088,0,6578
40084,1928,40098,141001,0,7085,40114,132136,0,6529
40114,1983,40128,141146,0,7047,40144,132216,16,6580
40144,1910,40158,141284,0,7135,40169,132286,0,6522
40169,4095,40183,141244,9,7136,40194,132347,0,6570
40194,1915,40208,141298,28,7014,40220,132384,21,6559
40220,185,40234,141259,0,6986,40250,132398,0,6497
40250,3921,40264,141292,0,6983,40280,132450,0,6568
40280,202,40294,141320,0,6878,40310,132606,0,6530
40310,3872,40324,141338,0,6952,40340,132723,4,6632
40340,190,40354,141398,18,6859,40370,132794,17,6562
40370,3831,40384,141423,20,6871,40400,132826,21,6633
40400,183,40415,141510,0,6763,40430,132934,17,6560
40430,3798,40445,141557,0,6735,40461,133073,7,6642
40461,549,40475,141681,0,6741,40491,133147,0,6547
40491,3344,40505,141752,1,6850,40521,133223,0,6666
40521,550,40535,141740,1,6842,40551,133282,2,6612
40551,3293,40565,141727,13,6863,40581,133361,0,6693
40581,535,40596,141739,0,6864,40611,133436,22,6612
40611,3277,40626,141772,7,6876,40641,133471,12,6673
40641,543,40656,141837,0,6977,40672,133496,28,6572
40672,2838,40686,142022,0,7048,40702,133580,0,6638
40702,994,40716,142034,5,7105,40732,133568,0,6526
40732,2834,40746,141764,18,7072,40762,133433,0,6610
40762,982,40777,141383,5,7022,40792,133229,0,6510
40792,2816,40807,141155,3,6944,40822,133104,6,6574
40822,990,40837,141149,0,7033,40852,133058,12,6491
40852,2785,40867,141308,1,7032,40882,133071,21,6563
40882,1007,40897,141395,17,7098,40913,133026,10,6481
40913,2320,40927,141461,30,7024,40943,133001,0,6545
40943,1530,40958,141495,16,7027,40973,132900,0,6520
40973,2306,40988,141458,0,6942,41003,132868,0,6622
41003,1546,41018,141422,0,7045,41033,132849,0,6616
41033,2271,41048,141414,2,6956,41063,132847,9,6650
41063,1547,41078,141465,23,7030,41093,132790,17,6640
41093,2273,41108,141524,21,6873,41123,132748,8,6672
41123,1535,41139,141592,1,6915,41154,132762,10,6637
41154,1728,41169,141661,1,6767,41184,132767,0,6651
41184,2117,41199,141730,0,6956,41214,132710,0,6614
41214,1712,41229,141788,0,6822,41244,132680,0,6678
41244,2130,41259,141787,24,6977,41274,132637,0,6654
41274,1706,41289,141788,14,6802,41304,132657,16,6660
41304,2160,41320,141821,4,6926,41334,132622,23,6615
41334,1712,41350,141823,0,6817,41364,132598,14,6618
41364,2202,41380,141903,11,7071,41395,132564,8,6558
41395,1117,41410,141981,15,6971,41425,132565,0,6547
41425,2768,41440,142028,17,7142,41455,132502,0,6531
41455,1117,41471,141830,21,6989,41485,132414,0,6526
41485,2795,41501,141419,3,7037,41515,132203,0,6481
41515,1104,41531,141174,0,6894,41545,132027,13,6462
41545,2839,41561,141147,0,7053,41575,131991,28,6439
41575,1145,41591,141244,10,6945,41605,132015,3,6425
41605,2881,41621,141313,12,7085,41636,132030,0,6436
41636,597,41652,141355,35,6939,41666,132094,3,6432
41666,3407,41682,141390,8,7046,41696,132103,0,6495
41696,591,41712,141385,2,6981,41726,132102,0,6553
41726,3437,41742,141353,16,7125,41756,132070,0,6606
41756,625,41772,141332,25,7043,41786,132089,20,6618
41786,3463,41802,141367,24,7123,41816,132133,36,6642
41816,575,41833,141402,23,7012,41846,132122,19,6642
41846,3470,41858,141461,55,7088,41872,132293,8,6622
41872,2646,41888,141545,0,7045,41902,132340,2,6688
41902,1227,41918,141637,2,7189,41932,132386,0,6657
41932,2690,41948,141676,16,7123,41962,132435,0,6743
41962,1243,41978,141702,0,7201,41992,132445,0,6730
41992,2643,42004,141704,24,7168,42017,132354,19,6767
42017,206,42029,141724,37,7035,42042,132395,26,6783
42042,1248,42054,141751,30,7146,42067,132444,9,6737
42067,4031,42079,141785,4,7252,42093,132559,4,6728
42093,2175,42109,141838,0,7152,42123,132496,0,6760
42123,1798,42139,141909,4,7263,42153,132573,0,6743
42153,2137,42170,141959,0,7137,42183,132541,0,6773
42183,1803,42195,141975,26,7219,42208,132440,0,6767
42208,4095,42220,141772,51,7204,42233,132288,0,6787
42233,2114,42245,141415,19,7203,42258,132125,1,6766
42258,110,42270,141112,12,7050,42283,132021,21,6751
42283,1883,42295,140991,3,7099,42308,132035,19,6654
42308,4095,42320,141019,6,7076,42334,132088,34,6673
42334,1527,42351,141100,5,6919,42364,132034,0,6674
42364,2435,42376,141158,22,6994,42389,132080,0,6634
42389,3982,42401,141181,58,7004,42414,132110,0,6700
42414,1514,42426,141209,20,7053,42439,132094,0,6731
42439,206,42451,141223,15,6987,42464,132078,0,6729
42464,2497,42476,141195,5,7090,42489,132078,10,6679
42489,4095,42501,141167,20,7055,42514,132135,14,6745
42514,1529,42527,141148,0,7003,42539,132239,2,6722
42539,180,42552,141158,4,6901,42565,132205,0,6732
42565,3056,42577,141188,58,7002,42590,132224,0,6668
42590,3535,42602,141268,19,7069,42615,132306,0,6731
42615,949,42627,141338,16,7036,42640,132376,0,6754
42640,528,42652,141402,13,7049,42665,132405,0,6780
42665,3153,42677,141431,15,7107,42690,132360,0,6740
42690,3554,42703,141477,11,7071,42715,132412,30,6792
42715,903,42728,141479,0,6979,42740,132386,10,6793
42740,495,42753,141481,0,7023,42765,132384,17,6779
42765,3099,42778,141513,0,7115,42790,132342,15,6723
42790,3454,42803,141540,0,7160,42816,132367,0,6775
42816,503,42828,141589,23,7053,42841,132411,0,6765
42841,976,42853,141637,16,7116,42866,132441,0,6787
42866,3760,42879,141686,0,7139,42891,132505,25,6753
42891,2986,42904,141721,6,7104,42916,132531,28,6828
42916,425,42929,141762,0,7020,42941,132564,15,6831
42941,925,42954,141814,0,7174,42966,132516,5,6823
42966,3680,42979,141651,6,7202,42991,132383,18,6768
42991,2934,43004,141246,5,7148,43016,132181,7,6758
43016,411,43029,140920,29,6951,43042,132013,4,6708
43042,1521,43055,140846,12,6969,43067,131949,32,6660
43067,4095,43080,140822,1,6908,43092,131883,37,6636
43092,2449,43105,140883,0,6923,43117,131860,47,6678
43117,144,43130,140989,0,6843,43142,131839,27,6695
43142,1447,43155,140990,0,6980,43167,131858,17,6672
43167,4095,43180,140978,15,7006,43192,131878,28,6675
43192,2427,43205,140987,25,6965,43217,131833,0,6697
43217,125,43231,140994,20,6844,43242,131807,0,6683
43242,1457,43256,141057,7,6914,43267,131762,0,6630
43267,4095,43281,141068,0,6925,43293,131742,16,6626
43293,1889,43306,140979,0,6939,43318,131807,33,6632
43318,66,43331,140989,0,6888,43343,131811,54,6644
43343,2015,43356,141007,24,6997,43368,131832,27,6630
43368,4095,43381,141057,24,6976,43393,131845,2,6668
43393,1861,43407,141163,21,6907,43423,131858,0,6696
43423,2061,43437,141278,0,6949,43453,131918,22,6704
43453,1851,43467,141370,0,6931,43478,131940,0,6699
43478,64,43492,141412,3,6978,43503,132001,0,6703
43503,2042,43517,141398,5,7048,43529,132063,6,6619
43529,3861,43542,141309,16,7069,43554,132032,35,6679
43554,1261,43567,141346,6,6942,43579,132058,58,6689
43579,246,43593,141447,18,6953,43609,132050,0,6667
43609,3824,43623,141483,6,6996,43639,132080,0,6738
43639,253,43653,141628,0,6995,43669,132103,17,6687
43669,3767,43683,141721,0,7031,43699,132171,18,6755
43699,242,43713,141775,24,6967,43724,132209,0,6733
43724,2684,43738,141655,13,6912,43750,132158,0,6654
43750,3270,43764,141273,0,6803,43780,131972,0,6658
43780,638,43794,140915,0,6655,43810,131786,0,6552
43810,3248,43824,140825,0,6614,43840,131706,0,6633
43840,624,43854,140893,0,6584,43870,131709,0,6574
43870,3215,43884,140969,17,6575,43900,131778,20,6638
43900,638,43914,141002,6,6521,43930,131823,23,6567
43930,3179,43945,141074,0,6471,43960,131838,13,6620
43960,611,43975,141092,6,6468,43991,131861,2,6526
43991,2769,44005,141138,0,6532,44021,131879,3,6555
44021,1092,44035,141114,0,6601,44051,131977,5,6495
44051,2739,44065,141074,12,6621,44081,132074,0,6603
44081,1097,44095,141086,15,6656,44111,132147,0,6547
44111,2713,44126,141167,0,6618,44141,132234,2,6612
44141,1085,44156,141261,0,6703,44171,132327,23,6529
44171,2690,44186,141365,0,6749,44201,132436,7,6592
44201,1093,44216,141467,4,6854,44232,132509,0,6506
44232,2215,44246,141543,22,6834,44262,132552,0,6571
44262,1639,44276,141526,4,6916,44292,132615,0,6536
44292,2197,44307,141548,0,6790,44322,132776,0,6665
44322,1642,44337,141558,0,6907,44352,132917,0,6658
44352,2178,44367,141650,8,6886,44382,133021,19,6736
44382,1663,44397,141711,0,6999,44412,133131,20,6738
44412,2162,44427,141808,27,6883,44442,133284,20,6795
44442,1664,44458,141884,7,6962,44473,133390,7,6777
44473,1613,44488,141713,0,6741,44503,133340,7,6818
44503,2258,44518,141279,0,6816,44533,133129,0,6776
44533,1607,44548,141024,0,6636,44563,133043,0,6813
44563,2259,44578,140991,12,6763,44593,133099,0,6803
44593,1584,44608,141097,12,6592,44623,133210,0,6835
44623,2288,44639,141242,6,6695,44653,133244,22,6813
44653,1593,44669,141342,12,6498,44683,133324,15,6816
44683,2320,44699,141409,0,6688,44714,133407,3,6788
44714,998,44729,141410,1,6617,44744,133447,0,6793
44744,2894,44759,141372,0,6803,44774,133498,3,6792
44774,987,44789,141291,33,6648,44804,133564,0,6822
44804,2896,44820,141294,17,6781,44834,133649,0,6811
44834,976,44850,141384,0,6647,44864,133645,12,6814
44864,2955,44880,141487,0,6874,44894,133766,9,6783
44894,1003,44910,141613,0,6840,44925,133828,15,6768
44925,3501,44940,141716,18,7006,44955,133868,12,6733
44955,482,44970,141773,13,6903,44985,133909,0,6721
44985,3478,45001,141785,0,7012,45015,134040,0,6779
45015,469,45031,141828,0,6894,45045,134098,0,6808
45045,3543,45061,141833,0,7065,45075,134063,14,6841
45075,496,45091,141900,0,7030,45105,134146,27,6852
45105,3630,45121,141980,33,7146,45135,134249,14,6896
45135,484,45151,142031,15,7058,45166,134298,0,6876
45166,4022,45182,141816,8,7103,45196,134298,0,6914
45196,144,45212,141414,0,6993,45226,134065,0,6852
45226,4063,45242,141176,0,7059,45256,133861,0,6922
45256,161,45272,141169,3,7028,45286,133881,0,6928
45286,4095,45302,141329,42,7093,45316,134131,14,6996
45316,165,45332,141455,52,7069,45346,134334,23,6984
45346,4095,45358,141548,39,7064,45371,134450,19,7022
45371,2495,45383,141633,64,7099,45397,134691,8,7063
45397,48,45413,141642,0,7125,45427,134813,0,7036
45427,4095,45443,141591,0,7163,45457,135078,0,7118
45457,107,45473,141557,30,7173,45487,135293,0,7107
45487,4095,45503,141552,5,7162,45517,135417,0,7201
45517,61,45529,141590,0,7008,45542,135524,13,7237
45542,1936,45554,141656,24,7134,45567,135743,22,7212
45567,4095,45579,141750,39,7170,45592,135912,14,7257
45592,1981,45604,141837,5,7209,45617,136043,12,7278
45617,128,45629,141896,7,7126,45643,136215,0,7278
45643,2608,45659,141969,5,7235,45673,136370,7,7298
45673,1387,45689,141988,18,7105,45703,136511,0,7339
45703,2580,45715,141992,14,7188,45728,136398,0,7312
45728,3857,45740,142006,44,7183,45753,136317,0,7386
45753,1361,45765,142049,15,7216,45778,136286,3,7392
45778,254,45790,142066,23,7185,45803,136393,25,7413
45803,2670,45815,142106,22,7283,45828,136423,17,7362
45828,3987,45840,142008,11,7257,45853,136363,22,7349
45853,1381,45865,141748,13,7178,45879,136135,12,7284
45879,573,45891,141503,13,7058,45904,135775,0,7234
45904,3207,45916,141398,39,7113,45929,135604,0,7148
45929,3351,45941,141420,31,7152,45954,135544,0,7207
45954,811,45966,141534,22,7115,45979,135467,0,7227
45979,625,45991,141642,12,7138,46004,135393,4,7222
46004,3305,46016,141742,16,7203,46029,135419,24,7167
46029,3387,46041,141809,0,7204,46054,135430,32,7225
46054,783,46067,141841,0,7080,46079,135435,0,7217
46079,591,46092,141791,0,7118,46105,135301,1,7170
46105,3828,46117,141747,28,7179,46130,135224,8,7111
46130,2889,46142,141695,13,7223,46155,135210,0,7166
46155,407,46167,141704,14,7125,46180,135190,0,7158
46180,1111,46192,141759,13,7198,46205,135174,0,7168
46205,3907,46217,141824,3,7215,46230,135149,0,7142
46230,2868,46243,141898,5,7183,46255,135264,14,7203
46255,336,46268,141978,0,7071,46280,135317,19,7216
46280,1058,46293,142060,0,7232,46305,135343,2,7196
46305,3781,46318,142078,4,7277,46330,135427,11,7182
46330,2823,46343,142104,18,7281,46356,135449,12,7206
46356,196,46368,142150,9,7184,46381,135531,0,7209
46381,1661,46393,142184,0,7257,46406,135605,0,7204
46406,4095,46419,142200,17,7232,46431,135700,28,7242
46431,2282,46444,142224,1,7247,46456,135717,13,7281
46456,101,46469,142096,0,7128,46481,135633,19,7259
46481,1619,46494,141784,0,7249,46506,135389,21,7150
46506,4095,46519,141466,12,7195,46531,135128,9,7102
46531,2259,46544,141260,9,7113,46556,135080,5,7069
46556,85,46569,141297,3,6981,46582,135067,0,7050
46582,2235,46595,141423,2,7053,46607,135144,34,6980
46607,4095,46620,141489,14,7059,46632,135218,81,7031
46632,1723,46645,141547,0,7053,46657,135335,29,7055
46657,96,46670,141556,0,7043,46682,135374,24,7098
46682,2211,46695,141563,4,7142,46707,135466,30,7064
46707,4095,46720,141488,37,7144,46732,135572,5,7114
46732,1691,46745,141476,15,7039,46757,135610,15,7088
46757,80,46771,141510,0,6992,46782,135649,0,7075
46782,2238,46796,141599,0,7058,46808,135712,0,7023
46808,3697,46821,141540,0,7090,46833,135868,28,7069
46833,1093,46846,141608,0,7062,46858,135989,53,7089
46858,338,46871,141655,1,7100,46883,136134,35,7099
46883,2864,46896,141664,20,7159,46908,136182,6,7073
46908,3639,46921,141743,9,7146,46933,136273,13,7162
46933,1047,46947,141889,4,7011,46963,136342,5,7185
46963,2871,46977,141906,0,7132,46993,136327,19,7172
46993,1040,47007,142012,0,7055,47018,136234,0,7148
47018,353,47032,142007,0,7169,47044,136191,10,7142
47044,3483,47057,141960,13,7211,47069,136236,34,7073
47069,3102,47082,141889,23,7181,47094,136159,49,7114
47094,560,47108,141620,16,7017,47124,135764,0,7018
47124,3497,47138,141286,9,6982,47154,135312,2,6945
47154,543,47168,141098,0,6777,47184,135095,2,6875
47184,3489,47198,141117,0,6879,47214,135111,23,6847
47214,519,47228,141174,2,6731,47244,135082,31,6786
47244,3489,47258,141156,24,6783,47269,135010,0,6733
47269,3036,47284,141156,12,6711,47300,134907,0,6736
47300,1282,47314,141137,0,6642,47330,134845,0,6673
47330,2585,47344,141242,0,6589,47360,134780,0,6727
47360,1286,47374,141281,2,6624,47390,134807,0,6694
47390,2558,47404,141258,11,6549,47420,134793,0,6720
47420,1271,47434,141199,23,6550,47450,134741,11,6659
47450,2528,47465,141254,13,6443,47480,134722,15,6678
47480,1295,47495,141316,0,6462,47511,134735,17,6610
47511,2061,47525,141468,0,6405,47541,134761,1,6621
47541,1872,47555,141552,0,6629,47571,134739,0,6587
47571,2020,47585,141594,13,6560,47601,134752,0,6638
47601,1855,47615,141585,13,6703,47631,134663,0,6592
47631,1981,47646,141622,21,6564,47661,134683,8,6625
47661,1856,47676,141662,1,6712,47691,134771,7,6580
47691,1971,47706,141569,0,6602,47721,134648,12,6541
47721,1879,47736,141213,0,6748,47752,134331,9,6395
47752,1393,47766,140917,18,6545,47782,134023,0,6298
47782,2512,47796,140731,7,6604,47812,133932,0,6268
47812,1371,47827,140745,17,6415,47842,133989,0,6316
47842,2512,47857,140754,0,6520,47872,134051,4,6324
47872,1344,47887,140756,0,6404,47902,134057,17,6331
47902,2534,47917,140763,6,6571,47932,134069,7,6350
47932,1334,47947,140820,17,6457,47962,134091,24,6356
47962,2555,47977,140829,17,6552,47993,134138,14,6368
47993,798,48008,140804,1,6345,48023,134218,0,6381
48023,3138,48038,140798,4,6454,48053,134227,0,6403
48053,775,48068,140846,0,6327,48083,134295,0,6473
48083,3138,48098,140907,0,6480,48113,134385,0,6493
48113,755,48128,141014,29,6344,48143,134489,9,6509
48143,3157,48158,141103,4,6436,48173,134491,24,6506
48173,739,48189,141131,0,6252,48203,134540,18,6518
48203,3200,48219,141164,3,6382,48234,134609,0,6506
48234,336,48249,141226,0,6308,48264,134663,0,6479
48264,3759,48279,141283,0,6501,48294,134743,0,6512
48294,307,48309,141261,17,6372,48324,134766,0,6491
48324,3712,48339,140964,24,6438,48354,134662,0,6478
48354,297,48370,140621,11,6177,48384,134550,16,6409
48384,3774,48400,140447,0,6211,48414,134476,19,6386
48414,333,48430,140452,0,6147,48444,134416,14,6291
48444,3856,48460,140504,8,6253,48475,134392,0,6294
48475,64,48490,140461,36,6199,48505,134423,0,6202
48505,4095,48520,140461,5,6222,48535,134575,0,6295
48535,62,48551,140501,10,6127,48565,134741,0,6262
48565,4095,48581,140530,0,6209,48595,134779,0,6370
48595,81,48611,140549,1,6247,48625,134854,7,6308
48625,4095,48641,140577,6,6282,48655,134912,18,6430
48655,115,48671,140617,23,6265,48685,135020,11,6353
48685,4095,48702,140665,16,6290,48716,135118,0,6465
48716,73,48732,140752,1,6259,48746,135250,0,6443
48746,4077,48762,140821,6,6321,48776,135326,0,6587
48776,107,48792,140902,5,6388,48806,135342,0,6584
48806,4095,48822,140982,42,6418,48836,135343,10,6706
48836,144,48852,141030,35,6426,48866,135301,24,6675
48866,4042,48883,141072,12,6423,48896,135296,23,6763
48896,114,48908,141110,52,6304,48922,135403,18,6748
48922,2844,48938,140847,1,6377,48952,135204,0,6696
48952,1106,48968,140569,12,6232,48982,135114,4,6692
48982,2909,48998,140438,17,6243,49012,135091,0,6678
49012,1114,49028,140428,14,6104,49042,134994,8,6686
49042,2914,49059,140443,11,6162,49072,134840,0,6693
49072,1060,49084,140451,13,6083,49097,134780,25,6697
49097,370,49109,140443,56,6039,49122,134858,19,6679
49122,2928,49134,140480,0,6154,49147,134968,0,6647
49147,3659,49159,140534,6,6171,49173,135095,4,6691
49173,606,49189,140602,0,6128,49203,135177,0,6709
49203,3531,49219,140599,12,6165,49233,135310,0,6719
49233,542,49245,140615,6,6083,49258,135199,0,6784
49258,774,49270,140649,40,6099,49283,135225,0,6812
49283,3532,49295,140705,26,6180,49308,135353,6,6787
49308,3115,49320,140775,7,6248,49333,135446,11,6849
49333,563,49345,140831,18,6184,49358,135494,18,6837
49358,880,49370,140894,5,6254,49383,135501,14,6828
49383,3651,49395,140963,1,6269,49409,135540,4,6788
49409,2589,49421,141005,33,6265,49434,135497,0,6838
49434,194,49446,141035,42,6176,49459,135483,0,6866
49459,1333,49471,141083,22,6307,49484,135455,0,6872
49484,4095,49496,141144,13,6367,49509,135355,0,6873
49509,2619,49521,141078,10,6366,49534,135306,6,6911
49534,236,49546,140858,2,6216,49559,135333,12,6908
49559,1405,49571,140653,6,6239,49584,135200,25,6827
49584,4095,49597,140563,0,6143,49609,135005,0,6802
49609,2522,49622,140552,0,6130,49635,134804,0,6799
49635,84,49647,140599,17,6047,49660,134716,7,6760
49660,1968,49672,140658,18,6183,49685,134568,2,6715
49685,4095,49697,140653,20,6177,49710,134349,0,6714
49710,2065,49722,140649,0,6149,49735,134144,0,6734
49735,137,49747,140699,2,6064,49760,133995,0,6752
49760,1982,49773,140728,0,6092,49785,134015,13,6688
49785,4095,49798,140736,0,6136,49810,133744,21,6700
49810,1955,49823,140730,0,6142,49835,133353,3,6629
49835,75,49848,140749,0,6106,49861,132957,4,6596
49861,2653,49873,140810,4,6214,49886,132705,0,6483
49886,4057,49898,140859,25,6223,49911,132568,0,6529
49911,1408,49924,140941,0,6162,49936,132428,43,6510
49936,246,49949,141023,0,6127,49961,132303,27,6521
49961,2624,49974,141073,4,6232,49986,132115,15,6459
49986,3875,49999,141136,0,6293,50011,131962,17,6490
50011,1300,50024,141186,6,6266,50036,131878,11,6479
50036,233,50049,141217,3,6306,50061,131879,8,6471
50061,2644,50074,141228,5,6362,50086,131936,10,6385
50086,3835,50100,141280,7,6355,50112,131983,18,6440
50112,781,50125,141284,0,6244,50137,131967,43,6450
50137,585,50150,141062,0,6280,50162,132025,54,6459
50162,3266,50175,140893,0,6309,50187,132064,28,6408
50187,3307,50200,140826,0,6297,50212,132101,12,6476
50212,747,50225,140831,15,6205,50237,132174,21,6510
50237,601,50250,140885,19,6268,50262,132251,1,6513
50262,3259,50276,140949,10,6256,50292,132429,11,6520
50292,689,50306,141013,0,6116,50317,132512,0,6526
50317,621,50331,141152,0,6243,50343,132547,0,6512
50343,3887,50356,141115,0,6295,50368,132526,27,6464
50368,2806,50381,141117,0,6325,50393,132510,63,6539
50393,306,50406,141075,13,6221,50418,132555,28,6554
50418,1086,50431,141116,9,6305,50443,132612,17,6557
50443,3878,50457,141169,0,6287,50473,132617,0,6587
50473,274,50487,141263,0,6204,50503,132620,6,6555
50503,3873,50517,141368,0,6350,50533,132639,8,6576
50533,254,50547,141473,0,6300,50558,132702,0,6577
50558,1115,50572,141458,9,6419,50584,132785,33,6545
50584,4095,50597,141410,23,6397,50609,132806,32,6541
50609,2233,50623,141461,19,6352,50639,132830,0,6620
50639,1680,50653,141532,0,6360,50669,132960,0,6610
50669,2198,50683,141645,0,6319,50699,133082,11,6674
50699,1680,50713,141740,2,6391,50729,133170,23,6654
50729,2160,50743,141690,13,6308,50759,133101,24,6667
50759,1696,50773,141408,22,6279,50784,132997,0,6597
50784,4095,50799,141226,15,6188,50815,132882,12,6606
50815,109,50829,141162,5,5978,50845,132828,0,6537
50845,4095,50859,141305,0,6033,50875,132821,0,6593
50875,94,50889,141367,0,5985,50905,132794,0,6552
50905,4031,50919,141375,26,6050,50935,132803,0,6612
50935,109,50949,141389,24,5947,50965,132831,0,6541
50965,3998,50980,141408,10,5986,50995,132823,35,6605
50995,112,51010,141431,1,5926,51025,132750,22,6500
51025,3943,51040,141443,0,6018,51056,132724,4,6542
51056,411,51070,141541,0,6079,51086,132734,0,6453
51086,3497,51100,141555,7,6159,51116,132791,0,6535
51116,432,51130,141570,6,6154,51146,132779,0,6469
51146,3445,51161,141615,2,6181,51176,132784,0,6541
51176,433,51191,141671,0,6209,51206,132839,21,6442
51206,3396,51221,141717,0,6287,51236,132835,16,6503
51236,447,51251,141773,0,6367,51267,132860,7,6403
51267,2960,51281,141827,29,6401,51297,132884,1,6469
51297,880,51311,141842,7,6424,51327,132903,0,6393
51327,2903,51342,141857,2,6379,51357,132933,0,6527
51357,893,51372,141911,0,6427,51387,132947,1,6505
51387,2885,51402,141964,0,6427,51417,132944,17,6591
51417,891,51432,142049,0,6498,51447,132967,24,6559
51447,2874,51462,142092,25,6454,51477,132906,14,6622
51477,902,51492,141935,28,6438,51508,132800,13,6556
51508,2399,51523,141666,0,6269,51538,132712,0,6602
51538,1429,51553,141534,0,6284,51568,132692,0,6560
51568,2378,51583,141606,0,6226,51598,132666,0,6645
51598,1427,51613,141728,9,6288,51628,132712,0,6593
51628,2354,51643,141772,2,6175,51658,132794,25,6661
51658,1463,51674,141790,4,6222,51688,132839,14,6612
51688,2352,51704,141833,0,6062,51718,132781,15,6616
51718,1495,51734,141819,0,6237,51749,132735,0,6555
51749,1811,51764,141822,0,6184,51779,132755,1,6604
51779,2026,51794,141862,19,6343,51809,132778,0,6535
51809,1791,51824,141893,13,6243,51839,132832,0,6590
51839,2054,51855,141959,0,6363,51869,132849,4,6551
51869,1771,51885,141980,0,6238,51899,132803,16,6571
51899,2108,51915,142049,0,6452,51929,132860,25,6521
51929,1801,51945,142135,0,6394,51959,132855,11,6510
51959,2170,51975,142171,15,6557,51990,132802,0,6460
51990,1168,52005,142198,18,6437,52020,132779,0,6471
52020,2717,52036,142215,17,6515,52050,132881,0,6494
52050,1175,52066,142244,0,6432,52080,132861,0,6543
52080,2776,52096,142272,0,6619,52110,132797,4,6568
52110,1183,52126,142346,4,6565,52140,132732,11,6594
52140,2827,52156,142405,25,6701,52170,132739,19,6601
52170,1147,52186,142456,27,6588,52201,132738,19,6616
52201,3310,52217,142332,17,6627,52231,132682,0,6635
52231,638,52247,142069,22,6543,52261,132676,0,6639
52261,3381,52277,141937,10,6645,52291,132657,0,6672
52291,649,52307,142024,40,6576,52321,132653,4,6720
52321,3453,52337,142086,36,6654,52351,132638,20,6723
52351,623,52368,142156,26,6556,52381,132541,20,6712
52381,3419,52393,142199,35,6575,52406,132597,9,6685
52406,3134,52418,142235,67,6608,52431,132641,0,6709
52431,615,52443,142263,22,6581,52457,132672,8,6711
52457,1262,52473,142261,0,6703,52487,132614,0,6636
52487,2675,52503,142255,0,6617,52517,132623,0,6693
52517,1275,52533,142277,0,6669,52547,132601,0,6685
52547,2622,52559,142300,9,6641,52572,132446,0,6717
52572,237,52584,142349,21,6571,52597,132409,3,6711
52597,1295,52609,142410,13,6656,52622,132376,22,6682
52622,4039,52634,142465,0,6733,52647,132386,5,6666
52647,2660,52659,142499,10,6743,52673,132396,15,6677
52673,126,52689,142575,9,6753,52703,132226,4,6604
52703,4095,52720,142572,8,6741,52733,132101,0,6642
52733,90,52745,142606,33,6618,52758,132104,0,6638
52758,1851,52770,142604,61,6744,52783,132063,0,6622
52783,4095,52795,142648,10,6798,52808,131997,0,6643
52808,2081,52820,142669,21,6826,52833,131992,4,6646
52833,176,52845,142699,15,6714,52858,132001,11,6665
52858,1967,52870,142719,23,6818,52883,132077,12,6593
52883,4095,52896,142780,4,6801,52909,132093,4,6628
52909,1455,52921,142824,41,6775,52934,132083,1,6618
52934,226,52946,142805,78,6710,52959,132034,0,6634
52959,2512,52971,142641,30,6839,52984,131957,0,6568
52984,3984,52996,142409,18,6799,53009,131862,0,6629
53009,1477,53021,142282,15,6736,53034,131785,0,6631
53034,309,53046,142283,24,6652,53059,131804,21,6635
53059,2598,53072,142375,2,6702,53084,131906,13,6586
53084,3920,53097,142437,0,6669,53109,131923,14,6614
53109,1392,53122,142497,4,6637,53134,131933,0,6612
53134,249,53147,142569,0,6673,53160,131973,5,6604
53160,3172,53172,142591,2,6775,53185,132010,0,6539
53185,3456,53197,142620,3,6775,53210,132062,0,6621
53210,912,53222,142580,10,6671,53235,132099,0,6643
53235,635,53248,142563,0,6671,53260,132178,18,6660
53260,3199,53273,142542,6,6687,53285,132181,28,6616
53285,3341,53298,142553,0,6698,53310,132184,0,6671
53310,786,53323,142597,0,6651,53335,132179,14,6663
53335,596,53348,142661,0,6745,53360,132218,6,6656
53360,3196,53373,142670,12,6785,53386,132254,4,6609
53386,2939,53398,142788,13,6800,53411,132304,0,6645
53411,439,53423,142811,6,6656,53436,132308,0,6659
53436,1077,53449,142833,8,6739,53461,132372,40,6676
53461,3757,53474,142871,0,6757,53486,132388,38,6656
53486,2818,53499,142867,0,6802,53511,132456,9,6720
53511,351,53524,142887,0,6745,53536,132538,18,6724
53536,1055,53549,142898,27,6823,53561,132571,16,6724
53561,3760,53574,142866,24,6857,53586,132550,9,6677
53586,2774,53599,142914,9,6830,53612,132530,6,6684
53612,171,53625,143009,11,6696,53637,132573,24,6694
53637,1623,53650,143032,0,6814,53662,132632,55,6683
53662,4095,53675,143064,0,6867,53687,132712,38,6686
53687,2271,53700,143112,0,6889,53712,132746,19,6763
53712,129,53725,143055,9,6797,53737,132665,21,6782
53737,1641,53750,142785,23,6860,53762,132575,28,6724
53762,4095,53775,142561,13,6781,53787,132542,15,6719
53787,2234,53801,142508,5,6651,53812,132516,0,6727
53812,89,53826,142574,3,6569,53837,132498,0,6708
53837,1660,53851,142641,0,6693,53863,132473,24,6635
53863,4095,53876,142652,0,6722,53888,132486,39,6676
53888,1664,53901,142693,13,6672,53913,132516,46,6701
53913,131,53926,142694,26,6637,53938,132560,22,6724
53938,2256,53951,142759,11,6732,53963,132573,6,6664
53963,4038,53977,142825,6,6668,53993,132536,10,6718
53993,141,54007,142788,0,6614,54023,132504,20,6668
54023,4015,54037,142820,0,6699,54048,132523,0,6703
54048,1594,54062,142784,4,6662,54074,132554,0,6703
54074,410,54087,142718,21,6679,54099,132563,36,6690
54099,2894,54112,142750,10,6717,54124,132589,49,6632
54124,3556,54138,142825,24,6669,54154,132663,0,6701
54154,415,54168,142928,0,6620,54184,132730,0,6675
54184,3501,54198,143030,0,6663,54214,132844,0,6761
54214,432,54228,143098,0,6672,54244,132887,18,6725
54244,3471,54258,143131,2,6657,54274,132905,21,6758
54274,430,54288,143095,10,6615,54299,132920,0,6742
54299,2934,54314,143117,20,6558,54330,132979,0,6738
54330,539,54344,143128,5,6329,54360,133027,8,6742
54360,3535,54374,143201,0,6482,54390,133053,0,6753
54390,497,54404,143288,0,6357,54420,133098,0,6778
54420,3526,54434,143291,9,6504,54450,133144,0,6793
54450,469,54464,143303,21,6302,54480,133197,12,6772
54480,3527,54495,143317,0,6443,54510,133232,20,6775
54510,451,54525,143078,0,6224,54541,133180,23,6738
54541,4064,54555,142832,0,6381,54571,133145,10,6720
54571,174,54585,142750,0,6238,54601,133010,0,6647
54601,4019,54615,142772,24,6424,54631,132999,0,6695
54631,162,54645,142832,19,6313,54661,133102,4,6654
54661,4013,54676,142978,1,6451,54691,133210,18,6706
54691,144,54706,143033,0,6359,54721,133167,21,6627
54721,4021,54736,143090,0,6544,54751,133189,16,6659
54751,117,54766,143072,0,6540,54782,133220,0,6553
54782,4095,54796,143044,26,6639,54812,133278,0,6619
54812,80,54826,142966,26,6555,54842,133333,0,6542
54842,4095,54857,142981,10,6614,54872,133344,0,6669
54872,79,54887,143022,0,6564,54902,133316,0,6632
54902,4080,54917,143130,0,6692,54932,133325,14,6717
54932,74,54947,143218,0,6665,54962,133281,21,6645
54962,4045,54977,143281,16,6716,54992,133203,17,6718
54992,85,55007,143303,17,6663,55023,133190,0,6632
55023,3746,55038,143318,3,6628,55053,133118,0,6714
55053,247,55068,143340,0,6612,55083,133107,3,6679
55083,3648,55098,143355,0,6662,55113,133122,0,6785
55113,268,55128,143400,0,6645,55143,133090,0,6716
55143,3625,55158,143456,22,6634,55173,133051,9,6797
55173,277,55188,143460,18,6598,55203,133052,11,6712
55203,3609,55219,143451,0,6544,55233,132932,7,6765
55233,314,55249,143203,0,6521,55264,132670,7,6621
55264,3158,55279,142893,0,6494,55294,132485,5,6651
55294,660,55309,142818,1,6460,55324,132426,0,6550
55324,3134,55339,142854,19,6442,55354,132414,0,6659
55354,659,55370,142957,18,6479,55384,132497,14,6544
55384,3127,55400,143056,0,6415,55414,132607,25,6642
