165,0,180,141621,0,8359,195,2626,0,269
195,4095,210,141699,5,8533,225,2626,0,275
225,0,240,141765,32,8403,255,2638,0,259
255,4095,270,141777,16,8479,285,2635,11,260
285,0,301,141767,0,8284,315,2615,19,255
315,4095,331,141765,0,8397,345,2632,16,241
345,0,361,141788,0,8335,376,2629,0,222
376,4095,391,141861,0,8499,406,2600,4,220
406,0,421,141890,23,8425,436,2598,0,232
436,4095,451,141932,11,8521,466,2608,0,232
466,0,482,141949,0,8371,496,2698,0,243
496,4095,512,141959,0,8484,526,2653,2,250
526,0,542,141879,0,8447,556,2617,13,251
556,4095,572,140986,0,8547,586,2615,5,263
586,33,602,140203,13,8479,616,2608,10,237
616,4095,632,140162,11,8523,647,2615,3,241
647,0,663,140514,0,8457,677,2653,5,234
677,4095,693,140877,0,8508,707,2697,0,259
707,0,723,141051,0,8542,737,2694,0,243
737,4095,753,141094,0,8634,767,2691,0,279
767,28,783,141178,17,8598,797,2653,0,264
797,4095,813,141182,20,8622,827,2608,9,279
827,0,839,141186,10,8440,852,2553,13,273
852,1822,864,141147,51,8536,877,2588,27,248
877,4095,889,141202,39,8593,902,2652,18,262
902,2346,914,141264,17,8647,928,2705,12,251
928,16,944,141403,16,8676,958,2651,1,227
958,4095,974,141512,19,8669,988,2695,0,248
988,3,1005,141601,6,8638,1018,2597,0,247
1018,4095,1030,141655,9,8594,1043,2588,0,290
1043,1551,1055,141709,71,8580,1068,2562,0,286
1068,0,1080,141747,37,8535,1093,2534,0,298
1093,2473,1105,141753,19,8715,1118,2559,18,261
1118,4095,1130,141782,31,8717,1143,2556,34,274
1143,1679,1155,141804,4,8677,1168,2607,8,262
1168,28,1180,141820,2,8556,1193,2672,25,278
1193,2457,1206,141841,3,8625,1219,2585,3,242
1219,3894,1231,141872,53,8625,1244,2614,0,258
1244,935,1256,141890,39,8592,1269,2597,0,252
1269,185,1281,141923,3,8616,1294,2597,0,270
1294,3195,1306,141945,2,8720,1319,2588,0,271
1319,4080,1331,141964,12,8711,1344,2578,0,299
1344,1023,1356,141978,0,8607,1369,2534,0,271
1369,176,1382,141954,6,8552,1394,2612,11,295
1394,3088,1407,141494,7,8625,1419,2603,15,280
1419,3968,1432,140610,0,8611,1444,2608,14,274
1444,976,1457,140118,0,8527,1469,2596,10,268
1469,131,1482,140162,11,8582,1495,2596,1,262
1495,3952,1507,140521,26,8650,1520,2582,0,243
1520,3563,1532,140846,21,8643,1545,2610,0,259
1545,432,1558,141043,18,8500,1570,2593,59,247
1570,463,1583,141093,0,8545,1595,2602,25,264
1595,3823,1608,141113,0,8626,1620,2600,21,276
1620,3501,1633,141156,0,8682,1645,2615,18,282
1645,418,1658,141178,8,8569,1670,2606,30,288
1670,439,1683,141151,25,8680,1695,2617,5,291
1695,3776,1708,141153,19,8678,1720,2601,11,250
1720,3506,1734,141215,1,8638,1745,2604,0,253
1745,429,1759,141386,0,8481,1771,2601,0,254
1771,934,1784,141360,0,8616,1796,2623,29,264
1796,4095,1809,141468,0,8681,1821,2611,46,239
1821,3005,1834,141554,0,8705,1846,2609,50,263
1846,0,1859,141567,12,8605,1871,2606,38,258
1871,911,1884,141638,18,8695,1896,2621,19,275
1896,4095,1910,141700,7,8651,1926,2626,0,283
1926,0,1940,141774,0,8500,1956,2642,20,271
1956,4095,1970,141871,0,8647,1986,2621,32,278
1986,0,2000,141917,0,8589,2011,2619,0,278
2011,860,2025,141867,11,8714,2036,2622,0,267
2036,4095,2050,141879,20,8684,2062,2615,11,259
2062,2482,2075,141838,21,8612,2087,2617,33,246
2087,0,2101,141927,0,8424,2117,2603,0,256
2117,4095,2131,141952,13,8521,2147,2622,0,249
2147,0,2161,142040,0,8387,2177,2623,0,267
2177,4095,2191,142063,0,8532,2207,2652,0,271
2207,0,2221,142041,11,8332,2237,2706,11,306
2237,4095,2251,141984,16,8380,2267,2668,25,287
2267,0,2282,141294,0,8120,2297,2704,9,275
2297,4095,2312,140423,0,8217,2328,2681,6,279
2328,0,2342,140348,0,8165,2358,2685,10,261
2358,4095,2372,140721,0,8380,2388,2692,0,269
2388,0,2402,141061,19,8329,2418,2667,0,255
2418,4095,2432,141208,6,8439,2448,2679,0,257
2448,0,2463,141291,6,8316,2478,2678,0,215
2478,4095,2493,141330,0,8431,2508,2689,14,224
2508,0,2523,141363,0,8440,2538,2670,12,209
2538,4095,2553,141338,3,8559,2568,2672,28,172
2568,0,2583,141308,5,8544,2598,2669,16,165
2598,4095,2613,141325,2,8559,2629,2646,6,172
2629,35,2644,141430,7,8444,2659,2639,0,146
2659,4095,2674,141520,0,8498,2689,2647,0,169
2689,16,2704,141654,0,8526,2719,2658,0,178
2719,4029,2734,141745,17,8568,2749,2667,0,204
2749,0,2764,141770,30,8548,2779,2669,1,196
2779,4055,2795,141802,9,8517,2809,2658,5,198
2809,0,2825,141817,0,8464,2839,2663,20,198
2839,4073,2855,141814,0,8487,2869,2646,20,211
2869,15,2885,141838,0,8538,2900,2667,15,200
2900,3626,2915,141890,17,8568,2930,2647,0,205
2930,260,2945,141914,0,8573,2960,2652,0,197
2960,3632,2976,141943,24,8521,2990,2736,0,223
2990,272,3006,141968,0,8488,3020,2727,0,235
3020,3651,3036,141961,0,8508,3050,2672,0,258
3050,297,3066,141684,17,8591,3080,2645,15,235
3080,3728,3096,140732,11,8529,3110,2656,20,242
3110,309,3126,140275,30,8553,3140,2647,27,228
3140,3725,3157,140472,9,8474,3171,2661,25,236
3171,687,3187,140888,0,8500,3201,2686,0,207
3201,3202,3217,141163,0,8464,3231,2703,0,235
3231,697,3247,141291,0,8637,3261,2726,0,208
3261,3281,3277,141389,22,8552,3291,2724,0,252
3291,720,3307,141446,25,8658,3321,2707,0,227
3321,3259,3338,141397,12,8505,3351,2592,1,241
3351,665,3363,141340,46,8489,3376,2612,16,253
3376,4095,3388,141324,60,8601,3401,2624,7,247
3401,3269,3413,141395,24,8646,3426,2679,15,230
3426,229,3438,141479,2,8591,3451,2741,6,224
3451,730,3463,141559,20,8655,3477,2770,0,218
3477,4095,3493,141696,3,8698,3507,2716,0,208
3507,0,3524,141772,0,8607,3537,2652,0,218
3537,4095,3549,141815,39,8622,3562,2647,0,242
3562,2768,3574,141835,52,8650,3587,2640,0,256
3587,0,3599,141862,16,8580,3612,2618,0,266
3612,1249,3624,141871,23,8687,3637,2628,15,251
3637,4095,3649,141892,16,8722,3662,2637,15,245
3662,2853,3674,141902,12,8702,3687,2661,20,251
3687,16,3700,141914,17,8534,3712,2693,11,262
3712,1213,3725,141914,7,8625,3738,2709,0,240
3738,4095,3750,141947,46,8650,3763,2701,3,230
3763,2196,3775,141979,19,8711,3788,2703,0,225
3788,4,3800,141993,31,8630,3813,2705,0,244
3813,1887,3825,142011,23,8736,3838,2683,0,228
3838,4095,3850,141948,0,8716,3863,2666,0,261
3863,2240,3876,141334,11,8642,3888,2703,10,268
3888,0,3901,140540,0,8442,3913,2696,23,270
3913,1813,3926,140218,0,8580,3938,2689,22,262
3938,4095,3951,140430,0,8643,3963,2675,0,239
3963,2188,3976,140734,2,8669,3988,2681,11,247
3988,0,4001,141019,12,8600,4014,2672,10,263
4014,2607,4026,141254,6,8680,4039,2653,9,229
4039,4095,4052,141325,0,8654,4064,2683,43,238
4064,1499,4077,141347,0,8553,4089,2665,61,232
4089,0,4102,141366,0,8526,4114,2657,34,245
4114,2512,4127,141374,0,8691,4139,2677,26,244
4139,4095,4152,141355,0,8713,4164,2662,6,264
4164,1462,4177,141288,9,8641,4189,2660,11,267
4189,0,4202,141283,20,8619,4214,2660,16,277
4214,2474,4228,141396,27,8675,4244,2670,14,265
4244,1501,4258,141540,0,8509,4269,2661,0,245
4269,0,4283,141743,0,8581,4294,2651,0,241
4294,2464,4308,141788,0,8711,4320,2658,17,230
4320,3889,4333,141770,11,8746,4345,2662,24,230
4345,846,4358,141768,14,8635,4370,2665,56,233
4370,189,4383,141747,0,8650,4395,2672,30,235
4395,3175,4409,141823,15,8698,4425,2662,0,244
4425,846,4439,141869,0,8508,4455,2656,0,258
4455,3221,4469,141930,0,8664,4485,2681,21,264
4485,835,4499,142017,0,8583,4515,2676,20,260
4515,3191,4529,142001,19,8705,4540,2667,0,235
4540,3854,4554,141969,3,8674,4565,2678,0,256
4565,844,4579,141984,29,8471,4591,2666,2,235
4591,563,4605,141984,0,8495,4621,2642,8,223
4621,3351,4635,142032,0,8481,4651,2639,0,235
4651,560,4665,141984,0,8497,4681,2644,0,227
4681,3341,4695,141040,11,8482,4711,2649,0,246
4711,541,4725,140343,29,8445,4741,2670,3,249
4741,3337,4755,140395,7,8384,4771,2681,31,243
4771,542,4786,140804,10,8371,4801,2660,29,223
4801,3329,4816,141115,0,8348,4831,2660,10,223
4831,535,4846,141291,0,8468,4862,2653,21,231
4862,2819,4876,141438,2,8461,4892,2646,0,221
4892,1083,4906,141419,22,8524,4922,2634,5,219
4922,2815,4936,141404,24,8439,4952,2650,0,232
4952,1043,4967,141378,0,8458,4982,2662,0,246
4982,2806,4997,141361,0,8381,5012,2649,2,258
5012,1045,5027,141434,0,8551,5042,2687,4,249
5042,2799,5057,141543,11,8488,5072,2672,20,250
5072,1033,5087,141674,22,8577,5102,2674,25,239
5102,2811,5118,141716,5,8403,5132,2661,3,247
5132,1043,5148,141813,0,8445,5163,2659,7,217
5163,2241,5178,141814,0,8331,5193,2657,0,216
5193,1650,5208,141864,0,8533,5223,2623,0,227
5223,2250,5238,141906,9,8411,5253,2648,0,249
5253,1650,5268,141931,15,8540,5283,2658,0,252
5283,2229,5299,141920,18,8356,5313,2699,4,262
5313,1646,5329,141936,0,8443,5343,2665,18,229
5343,2259,5359,141940,0,8312,5373,2660,13,233
5373,1705,5389,141974,0,8583,5403,2661,17,226
5403,2320,5419,142036,9,8461,5434,2665,5,224
5434,2391,5449,142045,8,8606,5464,2664,0,209
5464,1552,5480,141801,18,8431,5494,2761,10,240
5494,2411,5510,140798,9,8481,5524,2753,0,251
5524,1560,5540,140318,0,8355,5554,2729,0,262
5554,2472,5570,140546,0,8569,5584,2706,0,265
5584,1610,5600,141009,3,8505,5614,2673,16,259
5614,2469,5630,141301,27,8627,5644,2674,31,272
5644,1589,5661,141425,11,8472,5674,2645,4,258
5674,2439,5686,141485,34,8533,5699,2730,16,236
5699,4095,5711,141529,51,8569,5725,2749,2,244
5725,897,5741,141476,0,8530,5755,2712,2,231
5755,3199,5771,141420,0,8678,5785,2744,0,254
5785,937,5801,141419,17,8571,5815,2751,0,259
5815,3207,5831,141471,10,8648,5845,2725,0,279
5845,891,5857,141563,20,8543,5870,2587,0,263
5870,179,5882,141641,42,8497,5895,2612,0,274
5895,3215,5907,141725,32,8652,5920,2627,17,255
5920,3920,5932,141776,22,8702,5945,2669,6,247
5945,960,5957,141838,9,8636,5970,2702,11,257
5970,256,5982,141872,12,8639,5996,2768,0,255
5996,4019,6013,141888,25,8678,6026,2668,0,229
6026,285,6038,141901,29,8522,6051,2662,0,242
6051,549,6063,141920,48,8552,6076,2660,0,247
6076,4016,6088,141914,30,8703,6101,2657,0,254
6101,3431,6113,141939,21,8733,6126,2638,0,277
6126,343,6138,141955,16,8625,6151,2591,0,253
6151,641,6163,141970,11,8689,6176,2604,8,271
6176,4079,6188,142001,2,8701,6201,2624,24,258
6201,3430,6214,141996,0,8654,6226,2667,0,250
6226,314,6239,141924,0,8533,6251,2672,14,259
6251,578,6264,141323,0,8641,6277,2652,0,250
6277,4095,6289,140643,17,8675,6302,2655,11,226
6302,2896,6314,140406,14,8688,6327,2662,0,231
6327,37,6339,140593,16,8568,6352,2647,2,251
6352,1150,6364,140949,0,8657,6377,2645,0,264
6377,4095,6390,141226,2,8654,6402,2665,12,261
6402,2844,6415,141372,0,8635,6427,2666,13,271
6427,0,6440,141436,0,8571,6452,2673,20,262
6452,1092,6465,141512,0,8732,6477,2676,0,260
6477,4095,6490,141487,21,8736,6502,2674,22,264
6502,2832,6515,141420,31,8723,6527,2662,0,257
6527,0,6540,141370,17,8591,6553,2660,15,246
6553,1782,6566,141417,0,8634,6578,2683,21,241
6578,4095,6591,141436,0,8659,6603,2656,41,237
6603,2242,6616,141510,0,8642,6628,2671,67,250
6628,0,6641,141611,0,8614,6653,2671,39,252
6653,1739,6666,141678,3,8731,6678,2674,10,258
6678,4095,6691,141678,21,8756,6703,2670,15,273
6703,2230,6716,141760,19,8678,6728,2666,5,266
6728,0,6742,141826,8,8562,6758,2682,11,254
6758,4095,6772,141877,0,8675,6788,2666,20,247
6788,0,6802,141954,0,8608,6813,2680,0,263
6813,1744,6827,141942,0,8742,6839,2663,0,244
6839,4095,6852,141872,19,8753,6864,2668,26,237
6864,1518,6877,141854,12,8650,6889,2665,39,244
6889,0,6902,141904,11,8603,6914,2679,72,253
6914,2485,6928,142006,7,8663,6944,2673,0,240
6944,1498,6958,142001,0,8518,6974,2660,0,271
6974,2476,6988,142093,0,8670,7004,2680,0,244
7004,1490,7018,141943,0,8516,7034,2679,0,256
7034,2494,7048,140992,16,8566,7064,2658,36,257
7064,1474,7078,140365,11,8344,7089,2688,0,231
7089,0,7104,140427,12,8341,7120,2657,18,229
7120,3844,7134,140816,9,8378,7150,2651,6,219
7150,203,7164,141255,0,8377,7180,2647,0,207
7180,3825,7194,141426,1,8494,7210,2652,0,224
7210,202,7224,141462,26,8481,7240,2644,0,231
7240,3801,7254,141479,18,8460,7270,2665,0,253
7270,192,7285,141463,0,8406,7300,2668,3,232
7300,3767,7315,141397,0,8406,7330,2659,28,242
7330,186,7345,141393,0,8495,7360,2672,28,221
7360,3741,7375,141482,0,8531,7390,2659,16,244
7390,186,7405,141578,10,8570,7421,2663,8,205
7421,3274,7435,141678,13,8553,7451,2649,12,229
7451,590,7466,141750,0,8486,7481,2649,0,216
7481,3258,7496,141795,0,8456,7511,2661,0,245
7511,587,7526,141852,0,8557,7541,2660,0,236
7541,3248,7556,141893,0,8537,7571,2656,6,271
7571,591,7586,141912,6,8566,7601,2682,16,239
7601,3237,7616,141919,22,8443,7631,2669,16,248
7631,609,7647,141930,0,8468,7661,2675,14,223
7661,3263,7677,141921,0,8372,7692,2664,13,230
7692,1157,7707,141963,0,8534,7722,2658,0,212
7722,2711,7737,141997,15,8471,7752,2658,0,225
7752,1138,7767,142030,27,8574,7782,2653,1,222
7782,2719,7798,141927,8,8419,7812,2730,0,243
7812,1143,7828,141069,0,8451,7842,2701,0,248
7842,2727,7858,140338,0,8314,7872,2665,14,251
7872,1206,7888,140378,0,8553,7902,2652,28,237
7902,2772,7918,140788,19,8453,7932,2645,19,241
7932,1232,7948,141147,38,8603,7963,2660,12,240
7963,2108,7979,141287,26,8450,7993,2680,8,236
7993,1831,8009,141350,0,8541,8023,2731,3,245
8023,2128,8039,141399,0,8437,8053,2747,0,249
8053,1872,8069,141396,0,8654,8083,2735,0,253
8083,2174,8099,141380,18,8546,8113,2709,0,281
8113,1893,8129,141377,27,8675,8143,2677,22,265
8143,2130,8160,141428,7,8492,8173,2604,13,272
8173,1885,8185,141502,44,8589,8198,2643,15,242
8198,4095,8210,141607,53,8615,8223,2688,10,251
8223,2127,8235,141687,35,8687,8249,2733,21,239
8249,9,8265,141769,0,8715,8279,2708,0,236
8279,4095,8295,141820,12,8723,8309,2750,12,256
8309,12,8325,141874,14,8712,8339,2723,0,234
8339,4095,8351,141874,19,8653,8364,2643,0,268
8364,1405,8376,141851,52,8606,8389,2625,0,265
8389,0,8401,141900,26,8547,8414,2582,0,290
8414,2683,8426,141906,11,8736,8439,2591,9,245
8439,4095,8451,141934,19,8735,8464,2613,16,266
8464,1439,8476,141951,24,8694,8489,2658,18,261
8489,44,8501,141960,8,8607,8514,2697,19,256
8514,2721,8527,141968,11,8679,8540,2658,0,242
8540,3725,8552,141983,47,8669,8565,2648,9,240
8565,686,8577,141998,49,8578,8590,2642,0,243
8590,298,8602,141820,22,8634,8615,2646,0,258
8615,3467,8627,140992,28,8704,8640,2642,0,238
8640,3851,8652,140383,18,8675,8665,2628,0,279
8665,747,8677,140280,0,8573,8690,2575,0,260
8690,327,8703,140560,0,8553,8715,2649,1,258
8715,3504,8728,140887,0,8634,8740,2656,24,261
8740,3751,8753,141157,0,8658,8765,2660,6,248
8765,677,8778,141263,0,8607,8790,2643,7,247
8790,307,8803,141296,0,8668,8816,2651,5,241
8816,4095,8828,141386,1,8743,8841,2642,0,231
8841,3302,8853,141396,0,8713,8866,2656,1,241
8866,188,8879,141388,14,8554,8891,2653,58,238
8891,752,8904,141353,0,8601,8916,2666,33,253
8916,4095,8929,141329,0,8651,8941,2663,21,253
8941,3186,8954,141393,0,8726,8966,2665,4,276
8966,138,8979,141469,0,8634,8991,2653,30,273
8991,747,9004,141508,13,8744,9016,2664,3,259
9016,4095,9029,141582,4,8735,9041,2654,10,245
9041,3163,9055,141673,22,8703,9066,2665,0,244
9066,114,9080,141837,0,8541,9092,2659,10,240
9092,1346,9105,141785,0,8682,9117,2671,21,225
9117,4095,9130,141841,14,8750,9142,2661,42,236
9142,2608,9155,141837,0,8753,9167,2662,71,236
9167,0,9180,141795,3,8658,9192,2651,42,250
9192,1357,9205,141812,14,8748,9217,2654,8,252
9217,4095,9231,141843,21,8697,9247,2674,0,276
9247,0,9261,141908,0,8548,9277,2685,15,260
9277,4095,9291,141978,0,8710,9307,2678,21,264
9307,0,9321,142043,0,8646,9337,2685,13,240
9337,4095,9351,142028,16,8747,9362,2665,0,252
9362,2545,9376,142003,8,8661,9388,2664,12,231
9388,0,9402,141912,24,8542,9418,2657,0,234
9418,4095,9432,141354,0,8548,9448,2639,0,229
9448,0,9462,140469,0,8368,9478,2652,0,234
9478,4095,9492,140333,0,8521,9508,2647,2,246
9508,0,9522,140669,17,8420,9538,2686,0,260
9538,4095,9552,141003,24,8500,9568,2690,14,252
9568,0,9583,141221,20,8330,9598,2672,32,231
9598,4095,9613,141274,0,8397,9628,2669,2,236
9628,0,9643,141329,0,8324,9659,2655,18,227
9659,4091,9673,141498,0,8491,9689,2660,10,212
9689,67,9703,141438,5,8466,9719,2650,0,213
9719,4034,9733,141359,28,8519,9749,2644,0,235
9749,71,9764,141372,21,8436,9779,2664,0,232
9779,3999,9794,141454,0,8452,9809,2675,0,256
9809,70,9824,141554,0,8477,9839,2693,2,235
9839,3920,9854,141673,5,8598,9869,2688,19,253
9869,64,9884,141765,13,8606,9899,2679,25,222
9899,3925,9914,141828,18,8589,9929,2661,23,230
9929,70,9945,141829,15,8518,9960,2669,0,226
9960,3445,9975,141844,0,8480,9990,2648,0,231
9990,420,10005,141838,0,8510,10020,2654,0,222
10020,3439,10035,141876,0,8557,10050,2650,0,235
10050,415,10065,141925,5,8585,10080,2643,0,242
10080,3421,10095,141974,7,8503,10110,2678,1,260
10110,421,10126,141937,6,8496,10140,2663,26,238
10140,3414,10156,141965,0,8414,10170,2667,4,233
10170,449,10186,141981,0,8520,10200,2653,21,220
10200,3472,10216,141973,0,8516,10231,2659,13,229
10231,944,10246,141483,22,8597,10261,2659,6,188
10261,2905,10276,140517,17,8440,10291,2648,3,223
10291,957,10307,140285,16,8482,10321,2748,0,221
10321,2905,10337,140598,0,8388,10351,2746,0,241
10351,981,10367,140993,0,8574,10381,2698,0,250
10381,2904,10397,141273,0,8515,10411,2675,13,251
10411,1061,10427,141379,17,8655,10441,2671,15,262
10441,2943,10457,141433,11,8509,10471,2687,12,240
10471,1041,10483,141440,0,8533,10496,2703,18,251
10496,4095,10508,141403,34,8561,10522,2752,10,245
10522,2316,10538,141327,0,8478,10552,2728,4,234
10552,1663,10568,141376,0,8689,10582,2764,0,239
10582,2329,10598,141464,18,8586,10612,2755,0,251
10612,1710,10628,141591,10,8688,10642,2741,0,261
10642,2305,10659,141671,0,8539,10672,2612,8,279
10672,1707,10684,141735,27,8597,10697,2619,6,244
10697,4095,10709,141776,45,8647,10722,2637,30,260
10722,2299,10734,141817,31,8721,10747,2662,17,243
10747,16,10759,141841,12,8611,10772,2713,38,237
10772,1792,10784,141851,12,8745,10798,2755,11,235
10798,4095,10814,141884,2,8718,10828,2738,1,233
10828,0,10840,141874,2,8549,10853,2686,0,237
10853,2475,10865,141879,32,8660,10878,2687,0,229
10878,4095,10890,141919,38,8678,10903,2663,0,248
10903,1553,10915,141924,26,8705,10928,2660,1,257
10928,11,10940,141936,22,8630,10953,2642,0,266
10953,2573,10965,141963,15,8771,10978,2622,25,242
10978,4095,10990,141988,0,8730,11003,2649,23,243
11003,1552,11016,141995,0,8650,11028,2708,8,220
11028,0,11041,141920,0,8536,11053,2694,0,244
11053,2521,11066,141385,0,8656,11079,2683,4,204
11079,3873,11091,140740,20,8682,11104,2686,0,222
11104,837,11116,140529,13,8616,11129,2676,0,220
11129,283,11141,140696,27,8613,11154,2683,6,217
11154,3375,11166,141026,2,8705,11179,2689,0,210
11179,3914,11192,141300,6,8675,11204,2698,33,240
11204,791,11217,141433,0,8524,11229,2698,13,231
11229,239,11242,141534,0,8599,11254,2695,27,227
11254,3319,11267,141609,0,8725,11279,2699,10,227
11279,3814,11292,141597,0,8760,11304,2709,26,244
11304,752,11317,141487,21,8648,11329,2708,0,239
11329,251,11342,141394,21,8664,11354,2704,1,225
11354,3351,11368,141360,21,8701,11380,2702,16,213
11380,3309,11393,141457,0,8667,11405,2707,36,225
11405,197,11418,141548,5,8551,11430,2714,43,235
11430,688,11443,141638,0,8696,11455,2713,36,218
11455,4095,11468,141710,0,8769,11480,2703,37,237
11480,3232,11493,141738,14,8779,11505,2706,2,240
11505,155,11518,141749,22,8649,11530,2702,15,251
11530,718,11544,141774,18,8714,11560,2735,27,283
11560,3186,11574,141847,22,8667,11590,2701,4,282
11590,707,11604,141918,0,8682,11615,2711,0,259
11615,4095,11629,141973,0,8744,11641,2700,0,258
11641,2655,11654,141907,0,8765,11666,2719,25,261
11666,0,11679,141865,26,8652,11691,2708,37,264
11691,1296,11704,141859,10,8751,11716,2714,80,258
11716,4095,11730,141903,11,8718,11746,2700,0,267
11746,0,11760,141964,1,8515,11776,2706,3,283
11776,4095,11790,141944,0,8661,11806,2715,4,289
11806,0,11820,141291,0,8555,11836,2714,19,275
11836,4095,11850,140720,25,8607,11866,2708,32,270
11866,0,11880,140740,25,8433,11891,2693,0,279
11891,1341,11906,141002,18,8510,11922,2699,21,263
11922,1910,11936,141299,0,8317,11952,2694,9,249
11952,2063,11966,141564,2,8416,11982,2696,5,257
11982,1895,11996,141714,2,8330,12012,2690,0,258
12012,2064,12026,141739,5,8487,12042,2696,0,285
12042,1878,12056,141682,29,8314,12072,2692,1,285
12072,2089,12087,141522,9,8433,12102,2692,0,257
12102,1823,12117,141454,0,8205,12132,2713,11,283
12132,2121,12147,141512,0,8429,12162,2713,16,258
12162,1822,12177,141650,0,8382,12192,2691,10,267
12192,2128,12207,141761,24,8561,12223,2680,0,253
12223,1117,12237,141821,20,8430,12253,2677,0,269
12253,2870,12268,141854,10,8542,12283,2684,0,255
12283,1093,12298,141863,0,8326,12313,2686,0,271
12313,2883,12328,141868,0,8530,12343,2691,0,288
12343,1086,12358,141911,0,8448,12373,2691,0,286
12373,2924,12388,141968,9,8616,12403,2703,9,283
12403,1047,12418,141939,12,8435,12433,2705,22,262
12433,2956,12449,141975,5,8504,12463,2684,29,272
12463,1072,12479,141968,6,8300,12494,2685,0,259
12494,3730,12509,141774,0,8456,12524,2676,0,248
12524,415,12539,140907,0,8338,12554,2682,0,262
12554,3750,12569,140413,15,8499,12584,2692,0,235
12584,382,12599,140539,14,8352,12614,2672,0,277
12614,3776,12630,140893,2,8459,12644,2705,0,275
12644,390,12660,141183,0,8312,12674,2675,16,259
12674,3845,12690,141321,0,8496,12704,2688,17,270
12704,396,12720,141426,0,8463,12734,2688,8,258
12734,3926,12750,141469,19,8619,12765,2673,15,253
12765,0,12780,141453,27,8495,12795,2686,0,241
12795,4095,12811,141379,8,8574,12825,2749,0,252
12825,0,12841,141362,13,8452,12855,2753,0,241
12855,4095,12871,141462,0,8629,12885,2742,0,274
12885,6,12901,141571,3,8596,12915,2722,0,289
12915,4095,12931,141698,29,8693,12945,2686,15,276
12945,17,12961,141752,13,8614,12975,2674,12,273
12975,4095,12987,141802,3,8637,13000,2639,20,260
13000,2865,13012,141811,39,8616,13025,2698,14,265
13025,0,13037,141848,47,8498,13051,2752,9,261
13051,1712,13067,141855,0,8723,13081,2708,0,241
13081,2288,13097,141914,12,8601,13111,2741,0,259
13111,1762,13127,141920,22,8727,13141,2741,0,251
13141,2256,13158,141916,5,8555,13171,2643,0,286
13171,1742,13183,141937,42,8623,13196,2620,0,257
13196,4095,13208,141930,53,8678,13221,2577,0,276
13221,2170,13233,141512,34,8712,13246,2609,5,260
13246,11,13258,140692,27,8561,13271,2612,25,266
13271,1946,13283,140169,3,8694,13296,2648,9,242
13296,4095,13308,140206,0,8668,13321,2710,6,259
13321,2171,13334,140467,0,8627,13347,2646,12,249
13347,0,13359,140810,39,8493,13372,2636,8,252
13372,2638,13384,140994,56,8662,13397,2640,0,242
13397,4095,13409,141100,20,8708,13422,2644,0,236
13422,1405,13434,141141,28,8700,13447,2638,0,248
13447,27,13459,141189,30,8647,13472,2621,0,269
13472,2759,13484,141234,3,8716,13497,2575,0,253
13497,4095,13510,141204,0,8678,13522,2656,2,256
13522,1344,13535,141178,0,8572,13547,2651,27,259
13547,0,13560,141197,0,8570,13572,2646,12,255
13572,2735,13585,141271,14,8710,13597,2644,0,245
13597,4095,13610,141358,0,8745,13623,2642,5,253
13623,766,13635,141482,0,8672,13648,2633,8,232
13648,337,13660,141563,1,8659,13673,2657,0,242
13673,3475,13686,141633,0,8708,13698,2645,84,228
13698,3791,13711,141692,0,8683,13723,2642,59,250
13723,702,13736,141694,0,8561,13748,2641,19,259
13748,291,13761,141737,0,8691,13773,2651,13,282
13773,3451,13786,141751,0,8773,13798,2647,15,243
13798,3714,13811,141724,33,8772,13823,2650,5,267
13823,647,13836,141747,0,8638,13848,2629,18,257
13848,304,13862,141765,23,8677,13873,2648,0,240
13873,3465,13887,141876,4,8674,13899,2640,0,221
13899,3188,13912,141850,0,8696,13924,2655,29,240
13924,112,13937,141881,0,8621,13949,2648,40,238
13949,774,13962,141663,4,8752,13974,2645,59,247
13974,4095,13987,140788,0,8732,13999,2642,48,229
13999,3133,14012,140054,18,8683,14024,2658,13,267
14024,102,14038,139955,24,8543,14054,2648,0,268
14054,4095,14068,140272,0,8618,14084,2675,10,269
14084,66,14098,140695,0,8538,14114,2659,25,254
14114,4095,14128,140967,0,8728,14139,2642,0,240
14139,3079,14153,140942,11,8717,14164,2640,0,244
14164,11,14178,141001,16,8575,14190,2651,7,251
14190,1415,14203,140968,22,8668,14215,2649,28,238
14215,4095,14229,141078,0,8583,14245,2640,0,240
14245,0,14259,141076,4,8392,14275,2621,0,234
14275,4095,14289,141181,0,8539,14305,2641,0,266
14305,0,14319,141263,9,8394,14335,2649,0,263
14335,4095,14349,141328,18,8502,14365,2659,12,276
14365,0,14379,141401,14,8314,14395,2663,13,279
14395,4095,14410,141495,2,8360,14425,2660,28,264
14425,0,14440,141559,0,8237,14455,2643,20,248
14455,4095,14470,141601,0,8460,14486,2642,0,253
14486,0,14500,141747,3,8401,14516,2635,0,231
14516,4095,14530,141736,23,8537,14546,2628,0,251
14546,0,14560,141720,23,8423,14576,2644,0,249
14576,4095,14591,141756,0,8458,14606,2639,1,283
14606,0,14621,141750,0,8410,14636,2671,5,266
14636,4095,14651,141787,0,8590,14666,2667,10,283
14666,0,14681,141860,0,8563,14696,2660,32,271
14696,4095,14711,141869,26,8607,14726,2666,12,259
14726,0,14741,141773,25,8538,14757,2650,11,259
14757,3914,14772,140813,1,8410,14787,2662,3,265
14787,119,14802,139990,0,8393,14817,2647,3,248
14817,3856,14832,140032,0,8455,14847,2648,0,258
14847,112,14862,140438,18,8473,14877,2644,0,257
14877,3824,14892,140775,23,8484,14907,2660,0,267
14907,125,14923,140940,17,8465,14937,2685,16,266
14937,3820,14953,140985,11,8388,14967,2666,16,287
14967,144,14983,141062,0,8455,14997,2670,25,256
14997,3856,15013,141094,0,8520,15027,2660,27,256
15027,198,15043,141076,18,8583,15058,2669,9,242
15058,3305,15073,141067,21,8527,15088,2659,0,247
15088,541,15104,141132,25,8559,15118,2769,0,256
15118,3298,15134,141245,2,8440,15148,2747,0,269
15148,580,15164,141355,0,8577,15178,2738,0,280
15178,3344,15194,141471,0,8566,15208,2702,0,302
15208,613,15224,141557,15,8693,15238,2676,14,265
15238,3347,15254,141606,3,8567,15268,2691,22,278
15268,629,15285,141628,12,8637,15298,2641,11,272
15298,3302,15310,141633,42,8614,15323,2741,24,266
15323,241,15335,141646,47,8491,15349,2753,15,270
15349,1189,15365,141658,0,8710,15379,2729,0,260
15379,2772,15395,141715,18,8612,15409,2772,0,268
15409,1231,15425,141748,25,8739,15439,2768,0,272
15439,2743,15456,141767,7,8569,15469,2645,0,304
15469,1202,15481,141801,25,8611,15494,2634,0,293
15494,4095,15506,141809,53,8665,15519,2624,15,294
15519,2725,15531,141549,26,8711,15544,2634,12,291
15544,6,15556,140780,7,8583,15569,2653,24,278
15569,1326,15581,140232,20,8680,15594,2708,19,286
15594,4095,15606,140192,22,8688,15620,2765,19,271
15620,2065,15637,140542,10,8541,15650,2670,0,269
15650,1943,15662,140886,35,8624,15675,2679,0,251
15675,4095,15687,141112,66,8676,15700,2661,0,273
15700,2064,15712,141241,30,8721,15725,2673,0,288
15725,4,15737,141330,17,8639,15750,2667,1,293
15750,2039,15762,141346,3,8766,15775,2604,0,293
15775,4095,15787,141273,19,8752,15800,2633,12,291
15800,2053,15813,141173,13,8678,15825,2678,8,300
15825,0,15838,141129,6,8513,15850,2673,23,301
15850,2043,15863,141152,0,8672,15875,2664,0,263
15875,4095,15888,141255,0,8727,15900,2666,5,287
15900,1953,15913,141397,0,8709,15926,2662,0,268
15926,96,15938,141485,12,8669,15951,2657,3,272
15951,2851,15963,141584,18,8763,15976,2649,0,269
15976,4095,15989,141626,13,8727,16001,2676,35,263
16001,1245,16014,141665,5,8596,16026,2671,29,292
16026,48,16039,141658,4,8581,16051,2676,9,295
16051,2804,16064,141716,0,8741,16076,2675,18,290
16076,4095,16089,141702,0,8791,16101,2676,7,285
16101,1182,16114,141683,10,8668,16126,2673,10,274
16126,64,16139,141655,23,8696,16151,2673,6,258
16151,2845,16165,141691,17,8738,16176,2674,0,243
16176,4079,16190,141807,0,8676,16202,2684,1,255
16202,528,16215,141805,0,8571,16227,2664,29,243
16227,401,16240,141842,0,8703,16252,2676,50,248
16252,3664,16265,141793,1,8774,16277,2670,55,237
16277,3583,16290,141354,19,8757,16302,2667,23,258
16302,503,16315,140470,25,8603,16327,2667,45,273
16327,411,16341,140031,34,8631,16357,2676,0,259
16357,3531,16371,140195,0,8616,16387,2677,8,263
16387,439,16401,140667,4,8636,16417,2673,17,244
16417,3489,16431,141074,0,8731,16442,2669,0,239
16442,439,16456,141147,1,8636,16467,2663,0,243
16467,436,16481,141243,20,8741,16493,2672,28,237
16493,4095,16506,141198,12,8699,16518,2666,42,238
16518,2960,16532,141253,9,8649,16548,2652,4,229
16548,954,16562,141174,4,8587,16578,2645,0,251
16578,2938,16592,141188,0,8578,16608,2650,11,263
16608,949,16622,141295,0,8615,16638,2678,4,262
16638,2918,16652,141355,20,8566,16668,2690,10,263
16668,963,16682,141450,23,8531,16698,2679,36,257
16698,2887,16713,141556,2,8394,16728,2667,21,243
16728,976,16743,141611,8,8407,16759,2660,9,227
16759,2334,16773,141691,0,8370,16789,2657,6,223
16789,1627,16803,141792,0,8523,16819,2648,0,225
16819,2304,16833,141779,13,8438,16849,2644,0,224
16849,1627,16863,141762,11,8535,16879,2649,0,231
16879,2271,16894,141753,11,8340,16909,2647,6,258
16909,1648,16924,141768,0,8486,16939,2666,3,239
16939,2255,16954,141827,0,8404,16969,2680,33,251
16969,1657,16984,141833,0,8618,16999,2670,22,257
16999,2245,17014,141881,21,8496,17029,2658,23,233
17029,1680,17044,141785,22,8593,17060,2655,13,235
17060,1522,17075,140838,2,8334,17090,2651,0,228
17090,2447,17105,139998,0,8427,17120,2633,0,226
17120,1490,17135,140052,0,8350,17150,2651,0,236
17150,2443,17165,140472,0,8532,17180,2645,0,263
17180,1463,17195,140853,14,8414,17210,2664,0,270
17210,2512,17225,141009,11,8512,17240,2664,14,261
17240,1470,17256,141058,0,8311,17270,2656,33,254
17270,2519,17286,141119,1,8446,17300,2638,11,246
17300,1456,17316,141150,0,8388,17331,2646,21,245
17331,3248,17346,141146,0,8574,17361,2641,0,226
17361,747,17376,141141,18,8477,17391,2643,0,229
17391,3289,17406,141213,8,8586,17421,2635,0,230
17421,735,17437,141308,0,8382,17451,2737,0,255
17451,3342,17467,141419,0,8552,17481,2711,0,270
17481,741,17497,141532,12,8498,17511,2672,0,263
17511,3436,17527,141627,6,8675,17541,2650,21,281
17541,768,17557,141661,17,8556,17571,2643,21,256
17571,3437,17587,141698,8,8643,17601,2656,8,241
17601,710,17613,141709,24,8527,17627,2740,2,241
17627,688,17643,141740,0,8625,17657,2683,0,222
17657,3186,17673,141744,0,8591,17687,2731,5,247
17687,739,17703,141798,4,8722,17717,2731,0,241
17717,3231,17733,141827,5,8627,17747,2725,0,267
17747,766,17763,141849,3,8715,17777,2687,2,249
17777,3184,17789,141874,21,8656,17802,2577,8,261
17802,106,17814,141878,43,8527,17827,2580,13,273
17827,771,17839,141781,7,8610,17852,2601,19,244
17852,4095,17864,140986,15,8699,17877,2660,16,247
17877,3211,17889,140172,11,8693,17903,2737,10,252
17903,21,17919,139987,27,8641,17933,2683,0,240
17933,4095,17950,140307,0,8655,17963,2634,0,242
17963,0,17975,140667,40,8501,17988,2633,0,255
17988,1393,18000,140900,73,8618,18013,2625,0,252
18013,4095,18025,140999,41,8713,18038,2602,4,266
18038,2597,18050,141043,5,8742,18063,2599,0,253
18063,20,18075,141118,5,8641,18088,2581,7,271
18088,1503,18100,141162,13,8732,18113,2588,12,260
18113,4095,18125,141142,1,8718,18138,2613,21,259
18138,2571,18151,141122,11,8650,18163,2642,7,249
18163,0,18176,141130,3,8544,18189,2638,1,244
18189,2183,18201,141215,20,8711,18214,2626,0,228
18214,4095,18226,141287,28,8764,18239,2624,3,238
18239,1866,18251,141385,17,8766,18264,2632,0,252
18264,36,18276,141498,4,8641,18289,2635,0,254
18289,2288,18301,141558,4,8742,18314,2627,0,263
18314,4095,18327,141607,0,8690,18339,2646,9,276
18339,1775,18352,141632,0,8638,18364,2642,28,273
18364,0,18377,141666,0,8629,18389,2652,14,272
18389,2251,18402,141665,0,8779,18414,2645,23,259
18414,4095,18427,141673,14,8787,18439,2650,0,267
18439,1738,18452,141623,13,8702,18464,2643,0,245
18464,0,18477,141687,26,8655,18490,2630,4,254
18490,3047,18503,141773,5,8704,18515,2659,47,234
18515,4007,18528,141786,0,8697,18540,2659,31,255
18540,995,18553,141804,0,8617,18565,2655,58,250
18565,129,18578,141830,0,8693,18590,2656,21,265
18590,3063,18603,141819,4,8797,18615,2647,21,266
18615,3969,18628,141774,27,8790,18640,2665,13,279
18640,954,18653,141676,10,8637,18665,2659,12,261
18665,144,18679,140963,4,8610,18695,2667,27,256
18695,3930,18709,140112,0,8643,18720,2665,0,255
18720,940,18734,140146,0,8552,18745,2655,0,250
18745,161,18759,140385,0,8682,18771,2672,6,247
18771,3962,18784,140659,14,8757,18796,2660,34,227
18796,3379,18809,140873,10,8743,18821,2669,56,253
18821,315,18834,141013,11,8587,18846,2655,49,231
18846,560,18860,141164,0,8666,18876,2663,0,245
18876,3351,18890,141209,0,8652,18906,2648,0,276
18906,560,18920,141309,0,8675,18936,2679,8,255
18936,3312,18950,141229,0,8672,18966,2687,33,262
18966,566,18980,141150,15,8616,18996,2674,18,247
18996,3287,19010,141196,16,8558,19021,2667,0,249
19021,251,19036,141290,1,8295,19052,2672,3,230
19052,4095,19066,141417,0,8438,19082,2666,4,245
19082,0,19096,141586,0,8336,19112,2649,0,224
19112,4095,19126,141670,0,8506,19142,2665,0,240
19142,0,19156,141691,4,8373,19172,2650,0,239
19172,4095,19186,141681,2,8490,19202,2670,5,264
19202,0,19217,141684,11,8270,19232,2686,12,236
19232,4095,19247,141683,0,8463,19262,2670,24,251
19262,0,19277,141719,4,8429,19292,2679,6,234
19292,4095,19307,141766,13,8591,19323,2672,9,241
19323,0,19337,141798,22,8481,19353,2668,0,226
19353,4095,19368,141809,14,8554,19383,2647,0,245
19383,0,19398,141835,4,8416,19413,2651,0,242
19413,4095,19428,141786,0,8543,19443,2653,0,266
19443,0,19458,141115,0,8487,19473,2674,0,265
19473,4095,19488,140386,0,8547,19503,2675,16,252
19503,0,19518,140284,25,8473,19533,2682,18,252
19533,4095,19549,140667,8,8480,19563,2665,27,241
19563,0,19579,141011,0,8383,19593,2666,17,222
19593,4095,19609,141227,0,8463,19624,2644,11,238
19624,14,19639,141383,0,8526,19654,2644,0,208
19654,4020,19669,141452,14,8582,19684,2655,0,236
19684,16,19699,141392,22,8565,19714,2646,0,224
19714,4012,19730,141247,0,8529,19744,2728,8,247
19744,22,19760,141208,5,8496,19774,2694,5,248
19774,4030,19790,141306,0,8571,19804,2669,5,252
19804,75,19820,141427,0,8636,19834,2671,13,233
19834,4090,19850,141587,29,8647,19864,2657,9,241
19864,83,19880,141660,13,8648,19895,2668,10,219
19895,3498,19911,141700,0,8572,19925,2710,2,227
19925,370,19941,141705,0,8615,19955,2729,0,242
19955,3499,19971,141751,0,8610,19985,2737,0,235
19985,432,20001,141783,1,8723,20015,2740,0,270
20015,3557,20031,141810,17,8647,20045,2698,0,275
20045,443,20061,141813,6,8706,20075,2675,14,268
20075,3515,20087,141803,25,8676,20100,2616,12,258
20100,426,20112,141828,32,8558,20125,2646,25,258
20125,459,20137,141836,40,8573,20150,2713,4,247
20150,3850,20162,141850,0,8738,20176,2741,16,243
20176,2981,20192,141599,7,8629,20206,2709,17,247
20206,1011,20222,140616,24,8705,20236,2757,0,238
20236,2961,20253,140125,15,8517,20266,2645,0,253
20266,993,20278,140251,33,8547,20291,2651,0,268
20291,4095,20303,140601,72,8622,20316,2629,0,267
20316,2947,20328,140916,21,8699,20341,2568,0,276
20341,7,20353,141137,28,8627,20366,2593,5,280
20366,1104,20378,141250,15,8728,20391,2607,3,273
20391,4095,20403,141313,16,8735,20416,2655,28,266
20416,2963,20429,141345,0,8712,20441,2654,15,244
20441,0,20454,141293,9,8533,20467,2655,8,248
20467,1728,20479,141214,80,8678,20492,2643,4,228
20492,4095,20504,141167,35,8730,20517,2667,0,241
20517,2256,20529,141213,24,8773,20542,2645,0,253
20542,19,20554,141329,16,8656,20567,2645,0,262
20567,1906,20579,141421,11,8754,20592,2633,0,266
20592,4095,20605,141537,0,8726,20617,2662,19,287
20617,2224,20630,141595,12,8670,20642,2661,20,268
20642,0,20655,141641,0,8566,20667,2678,14,285
20667,1789,20680,141684,0,8752,20692,2675,23,239
20692,4095,20705,141686,8,8772,20717,2666,12,265
20717,2188,20730,141685,29,8752,20743,2646,0,248
20743,35,20755,141742,17,8663,20768,2638,1,248
20768,2619,20781,141773,19,8734,20793,2660,43,233
20793,4095,20806,141763,0,8696,20818,2664,77,252
20818,1431,20831,141787,0,8635,20843,2663,26,252
20843,0,20856,141800,0,8670,20868,2679,25,265
20868,2602,20881,141814,5,8790,20893,2661,27,273
20893,4095,20906,141801,18,8807,20918,2676,10,267
20918,1373,20931,141734,30,8688,20943,2652,23,270
20943,0,20957,141234,10,8638,20973,2659,18,251
20973,4095,20987,140271,15,8623,20998,2675,0,263
20998,1322,21012,140060,0,8524,21024,2649,0,237
21024,295,21037,140116,0,8625,21049,2661,18,236
21049,3440,21062,140470,0,8738,21074,2652,34,232
21074,3712,21087,140737,24,8772,21099,2662,60,248
21099,645,21112,140933,9,8629,21124,2647,53,250
21124,301,21138,141024,17,8657,21154,2652,0,264
21154,3675,21168,141153,3,8675,21184,2668,0,268
21184,321,21198,141223,0,8652,21214,2670,16,247
21214,3635,21228,141249,4,8740,21244,2659,26,270
21244,322,21258,141198,18,8702,21269,2667,0,247
21269,3526,21283,141175,16,8668,21294,2666,0,235
21294,3599,21309,141252,19,8606,21325,2648,12,224
21325,804,21339,141318,1,8490,21355,2647,10,226
21355,3067,21369,141528,0,8490,21385,2646,0,245
21385,811,21399,141684,0,8530,21415,2665,0,233
21415,3047,21429,141725,0,8517,21445,2647,0,251
21445,823,21459,141722,17,8521,21475,2674,4,253
21475,3024,21490,141722,20,8428,21505,2685,20,254
21505,841,21520,141721,5,8420,21535,2679,26,239
21535,3005,21550,141737,0,8393,21565,2685,17,229
21565,853,21580,141763,0,8556,21596,2660,21,227
21596,2437,21610,141865,0,8501,21626,2653,5,236
21626,1495,21640,141811,14,8583,21656,2646,0,233
21656,2417,21671,141870,12,8431,21686,2643,0,231
21686,1487,21701,141783,0,8517,21716,2648,0,237
21716,2358,21731,140949,0,8409,21746,2671,0,260
21746,1495,21761,140076,0,8559,21776,2675,10,242
21776,2370,21791,140025,16,8432,21806,2677,16,272
21806,1532,21821,140381,17,8546,21836,2682,21,245
21836,2366,21852,140776,0,8347,21866,2666,19,244
21866,1577,21882,140971,4,8461,21897,2642,4,229
21897,1632,21912,141091,0,8361,21927,2644,17,223
21927,2302,21942,141184,0,8556,21957,2650,0,229
21957,1616,21972,141208,22,8438,21987,2655,0,233
21987,2320,22002,141167,2,8549,22017,2659,0,261
22017,1584,22033,141102,6,8345,22047,2696,0,258
22047,2363,22063,141171,0,8504,22077,2666,17,250
22077,1583,22093,141296,0,8434,22107,2665,4,257
22107,2445,22123,141439,0,8636,22137,2669,10,236
22137,1615,22153,141560,12,8538,22168,2660,11,254
22168,3157,22183,141642,20,8644,22198,2645,0,235
22198,858,22214,141646,21,8452,22228,2734,0,255
22228,3186,22244,141672,14,8596,22258,2758,0,257
22258,849,22274,141715,0,8536,22288,2735,0,269
22288,3258,22304,141761,4,8708,22318,2707,0,287
22318,862,22334,141766,26,8613,22348,2675,0,266
22348,3299,22364,141775,17,8695,22378,2660,16,278
22378,818,22390,141807,26,8580,22403,2622,20,265
22403,215,22415,141821,46,8529,22428,2705,18,249
22428,3308,22440,141864,39,8691,22454,2752,9,246
22454,3296,22470,141793,0,8656,22484,2699,9,253
22484,662,22500,140936,15,8732,22514,2735,5,245
22514,3298,22530,140022,19,8558,22544,2730,0,241
22544,667,22561,139942,13,8629,22574,2615,0,274
22574,3242,22586,140231,28,8619,22599,2628,0,281
22599,205,22611,140609,39,8526,22624,2579,11,291
22624,721,22636,140883,13,8652,22649,2607,1,273
22649,4095,22661,140986,21,8754,22674,2619,23,250
22674,3307,22686,141038,15,8754,22699,2644,18,265
22699,242,22711,141094,12,8616,22724,2696,14,253
22724,782,22737,141118,0,8643,22750,2644,5,250
22750,4095,22762,141114,36,8669,22775,2643,4,245
22775,2658,22787,141084,53,8680,22800,2642,0,239
22800,0,22812,141085,19,8640,22825,2653,0,240
22825,1371,22837,141157,28,8757,22850,2639,0,249
22850,4095,22862,141241,23,8790,22875,2630,4,271
22875,2683,22887,141365,9,8762,22900,2597,0,273
22900,13,22913,141447,5,8591,22925,2655,7,278
22925,1392,22938,141532,0,8678,22950,2679,17,265
22950,4095,22963,141595,4,8718,22975,2652,26,263
22975,2579,22988,141618,5,8749,23000,2644,9,245
23000,0,23013,141632,10,8656,23026,2646,21,249
23026,2160,23038,141693,0,8802,23051,2628,0,238
23051,4095,23063,141695,1,8770,23076,2634,0,246
23076,1954,23089,141728,9,8710,23101,2648,64,255
23101,0,23114,141734,2,8567,23126,2669,42,252
23126,2142,23139,141738,0,8701,23151,2657,24,249
23151,4095,23164,141761,0,8769,23176,2645,20,271
23176,1840,23189,141784,0,8746,23201,2665,28,269
23201,0,23214,141773,19,8701,23226,2656,7,273
23226,2196,23239,141782,9,8797,23251,2667,4,252
23251,4095,23265,141769,4,8742,23276,2664,0,264
23276,1793,23290,141338,1,8590,23301,2660,0,244
23301,0,23315,140426,0,8542,23327,2660,0,262
23327,2947,23340,139845,0,8686,23352,2659,29,226
23352,4055,23365,139932,0,8728,23377,2650,27,244
23377,1050,23390,140193,28,8642,23402,2654,52,257
23402,114,23415,140536,19,8688,23427,2658,26,265
23427,2990,23441,140798,9,8710,23457,2649,0,279
23457,1013,23471,140931,1,8553,23487,2675,11,266
23487,3014,23501,141090,0,8702,23517,2682,5,272
23517,989,23531,141188,0,8627,23547,2676,18,240
23547,3045,23561,141156,7,8747,23572,2650,0,249
23572,3932,23586,141040,16,8722,23597,2661,0,252
23597,945,23611,141067,15,8525,23623,2658,17,239
23623,507,23637,141123,0,8578,23653,2658,3,242
23653,3419,23667,141218,0,8537,23683,2649,0,237
23683,509,23697,141461,0,8558,23713,2660,0,243
23713,3383,23727,141576,5,8563,23743,2647,0,256
23743,522,23757,141641,22,8559,23773,2665,0,248
23773,3337,23787,141649,15,8500,23803,2673,11,247
23803,533,23818,141669,0,8431,23833,2661,36,251
23833,3333,23848,141666,0,8423,23863,2671,30,260
23863,553,23878,141716,0,8515,23894,2642,17,239
23894,2781,23908,141807,0,8524,23924,2648,12,230
23924,1107,23938,141792,29,8593,23954,2653,0,237
23954,2751,23968,141778,27,8511,23984,2637,0,233
23984,1120,23999,141808,7,8521,24014,2652,0,238
24014,2737,24029,141831,0,8442,24044,2657,0,256
24044,1126,24059,141862,1,8623,24074,2677,6,241
24074,2719,24089,141868,0,8539,24104,2677,30,263
24104,1159,24119,141204,27,8604,24134,2669,15,243
24134,2700,24149,140101,6,8378,24164,2668,18,248
24164,1174,24180,139854,0,8427,24195,2655,0,232
24195,2070,24210,140158,0,8283,24225,2641,0,244
24225,1854,24240,140624,0,8530,24255,2636,0,239
24255,2047,24270,140945,21,8405,24285,2649,0,246
24285,1861,24300,141041,16,8559,24315,2649,9,255
24315,2025,24331,141092,11,8391,24345,2698,2,259
24345,1904,24361,141111,0,8476,24375,2644,13,242
24375,2022,24391,141061,0,8356,24405,2655,14,265
24405,1959,24421,141047,0,8599,24435,2678,1,235
24435,2064,24451,141130,11,8492,24465,2657,0,248
24465,2022,24481,141228,16,8645,24496,2662,5,235
24496,1270,24512,141372,16,8476,24526,2725,0,237
24526,2715,24542,141472,2,8586,24556,2749,0,251
24556,1270,24572,141552,0,8490,24586,2758,0,270
24586,2766,24602,141629,0,8705,24616,2713,0,279
24616,1302,24632,141679,7,8589,24646,2696,0,286
24646,2830,24662,141704,13,8717,24676,2672,16,276
24676,1268,24693,141712,16,8547,24706,2606,10,267
24706,2815,24718,141721,27,8650,24731,2683,8,251
24731,4054,24743,141748,51,8683,24756,2724,7,267
24756,1232,24768,141750,25,8667,24782,2742,3,251
24782,369,24798,141819,0,8758,24812,2715,0,244
24812,3634,24828,141838,18,8712,24842,2740,0,253
24842,398,24858,141876,17,8732,24872,2734,0,251
24872,3582,24884,141896,22,8694,24897,2620,0,270
24897,530,24909,141904,52,8587,24922,2604,0,283
24922,388,24934,141618,35,8612,24947,2596,9,267
24947,3739,24959,140691,4,8726,24972,2603,9,268
24972,3635,24984,140021,28,8711,24997,2622,5,259
24997,592,25009,139990,22,8607,25022,2662,6,265
25022,471,25034,140291,0,8631,25047,2750,0,247
25047,3751,25060,140667,0,8666,25073,2652,9,235
25073,3024,25085,140979,35,8688,25098,2645,7,258
25098,20,25110,141112,31,8568,25123,2654,2,258
25123,938,25135,141192,20,8715,25148,2644,0,243
25148,4095,25160,141256,18,8786,25173,2638,0,256
25173,3071,25185,141257,25,8765,25198,2624,0,294
25198,61,25210,141211,11,8622,25223,2576,9,280
25223,976,25236,141143,7,8673,25248,2660,12,266
25248,4095,25261,141137,0,8689,25273,2652,17,260
25273,2994,25286,141193,0,8727,25298,2657,16,258
25298,0,25311,141291,0,8642,25323,2649,3,254
25323,965,25336,141405,2,8784,25349,2649,0,235
25349,4095,25361,141545,20,8792,25374,2652,12,246
25374,2449,25386,141623,9,8778,25399,2655,0,242
25399,7,25412,141653,1,8591,25424,2663,60,247
25424,1625,25437,141669,4,8710,25449,2659,29,260
25449,4095,25462,141719,0,8738,25474,2662,20,261
25474,2364,25487,141710,7,8770,25499,2661,7,270
25499,0,25512,141720,0,8684,25524,2654,16,267
25524,1631,25537,141703,18,8797,25549,2655,24,251
25549,4095,25562,141736,10,8778,25574,2658,0,268
25574,2330,25588,141761,6,8699,25599,2657,0,255
25599,0,25613,141894,0,8593,25625,2657,0,247
25625,2407,25638,141848,0,8729,25650,2663,19,236
25650,4095,25663,141868,0,8784,25675,2670,34,238
25675,1584,25688,141895,0,8737,25700,2656,67,246
25700,0,25713,141817,20,8708,25725,2667,34,250
25725,2406,25738,141743,19,8788,25750,2665,18,255
25750,4095,25764,140979,7,8709,25780,2683,2,259
25780,0,25794,140106,9,8529,25810,2670,13,256
25810,4095,25824,140086,0,8653,25840,2683,12,254
25840,0,25854,140519,2,8669,25865,2669,0,260
25865,2471,25879,140825,15,8759,25890,2648,0,239
25890,4095,25904,141056,23,8727,25916,2661,2,240
25916,848,25929,141081,20,8579,25941,2658,38,245
25941,208,25955,141239,11,8555,25971,2647,8,235
25971,3855,25985,141281,0,8592,26001,2656,0,226
26001,209,26015,141347,0,8555,26031,2646,0,235
26031,3814,26045,141302,3,8600,26061,2651,0,259
26061,210,26075,141237,18,8544,26091,2668,0,227
26091,3760,26105,141293,11,8524,26121,2680,21,261
26121,211,26136,141403,0,8432,26151,2660,18,238
26151,3742,26166,141519,0,8431,26181,2649,14,238
26181,218,26196,141628,0,8484,26212,2666,3,222
26212,3264,26226,141807,0,8558,26242,2655,3,218
26242,646,26256,141807,29,8573,26272,2655,3,219
26272,3212,26286,141775,9,8537,26302,2656,0,230
26302,650,26317,141789,2,8508,26332,2647,0,241
26332,3198,26347,141790,0,8478,26362,2666,0,258
26362,642,26377,141821,0,8589,26392,2668,13,239
26392,3171,26407,141887,0,8589,26422,2662,20,259
26422,656,26437,141911,8,8675,26452,2675,23,238
26452,3130,26467,141916,15,8537,26482,2668,26,242
26482,701,26498,141928,0,8559,26513,2649,7,243
26513,2610,26528,141919,0,8419,26543,2637,1,245
26543,1264,26558,141800,0,8551,26573,2642,0,229
26573,2597,26588,140817,0,8417,26603,2653,5,258
26603,1265,26618,140068,22,8540,26633,2646,4,260
26633,2592,26648,140140,16,8372,26663,2662,0,265
26663,1275,26679,140552,0,8453,26693,2643,12,254
26693,2603,26709,140952,0,8324,26723,2640,32,263
26723,1338,26739,141157,0,8552,26753,2653,14,241
26753,2615,26769,141271,0,8468,26784,2640,20,227
26784,2006,26799,141333,24,8627,26814,2640,2,227
26814,1898,26829,141329,18,8480,26844,2635,0,244
26844,2028,26860,141240,0,8553,26874,2728,0,238
26874,1892,26890,141241,0,8437,26904,2711,0,250
26904,2096,26920,141309,0,8652,26934,2696,0,271
26934,1936,26950,141439,5,8563,26964,2671,0,281
26964,2137,26980,141577,15,8731,26994,2656,13,280
26994,1931,27010,141663,25,8566,27024,2651,26,274
27024,2144,27036,141715,27,8643,27049,2688,6,256
27049,4095,27061,141774,53,8656,27075,2739,0,256
27075,1167,27091,141777,0,8566,27105,2691,0,254
27105,2911,27121,141818,0,8756,27135,2742,1,248
27135,1190,27151,141851,10,8647,27165,2747,0,257
27165,2943,27181,141855,0,8751,27195,2736,0,273
27195,1123,27212,141874,12,8582,27225,2608,0,293
27225,2929,27237,141887,38,8702,27250,2595,20,260
27250,4001,27262,141916,46,8702,27275,2617,18,282
27275,1138,27287,141925,0,8708,27300,2616,14,280
27300,131,27312,141944,18,8679,27325,2667,8,271
27325,3027,27337,141967,20,8794,27351,2734,7,240
27351,3551,27367,141927,7,8693,27381,2676,0,241
27381,423,27393,141411,11,8605,27406,2665,5,249
27406,3758,27418,140514,37,8636,27431,2653,0,239
27431,3504,27443,140094,47,8628,27456,2657,0,258
27456,464,27468,140233,18,8602,27481,2636,5,273
27481,491,27493,140582,28,8683,27506,2614,1,283
27506,3908,27518,140947,22,8775,27531,2595,3,251
27531,3571,27543,141168,12,8747,27556,2617,9,273
27556,435,27569,141272,4,8598,27581,2663,24,268
27581,510,27594,141339,0,8628,27606,2682,1,270
27606,3855,27619,141369,0,8710,27631,2651,11,258
27631,3471,27644,141361,0,8770,27657,2661,0,243
27657,3,27669,141310,10,8672,27682,2660,2,241
27682,1075,27694,141274,7,8781,27707,2673,0,257
27707,4095,27719,141310,7,8770,27732,2654,0,244
27732,2969,27745,141364,8,8747,27757,2672,25,275
27757,0,27770,141468,0,8571,27782,2672,19,280
27782,1069,27795,141548,0,8713,27807,2679,27,274
27807,4095,27820,141652,0,8781,27832,2683,23,263
27832,2835,27845,141695,0,8807,27857,2675,12,267
27857,0,27870,141708,0,8677,27882,2676,7,260
27882,1074,27895,141704,23,8795,27907,2678,0,253
27907,4095,27920,141743,20,8777,27933,2660,13,235
27933,2294,27946,141816,2,8704,27958,2683,27,265
27958,0,27971,141821,0,8596,27983,2675,37,244
27983,1747,27996,141836,0,8767,28008,2691,64,237
28008,4095,28021,141859,8,8805,28033,2684,42,251
28033,2189,28046,141826,13,8783,28058,2686,16,269
28058,0,28071,141810,23,8694,28083,2679,12,268
28083,1772,28096,141848,24,8773,28108,2671,29,272
28108,4095,28122,141926,0,8748,28138,2698,14,280
28138,0,28152,141868,0,8617,28168,2700,22,234
28168,4095,28182,141196,0,8757,28193,2687,0,265
28193,2138,28207,140507,0,8681,28219,2688,0,246
28219,0,28232,140290,11,8668,28244,2680,38,242
28244,2559,28257,140517,24,8748,28269,2669,46,229
28269,4095,28283,140870,32,8717,28299,2665,0,242
28299,0,28313,141282,5,8572,28329,2667,0,241
28329,4095,28343,141489,0,8663,28359,2675,0,265
28359,0,28373,141653,0,8609,28389,2674,1,274
28389,4095,28403,141641,18,8667,28419,2693,29,269
28419,0,28433,141505,17,8552,28449,2683,30,221
28449,4095,28464,141379,10,8545,28479,2687,8,237
28479,0,28494,141357,0,8400,28510,2669,12,234
28510,3717,28524,141500,0,8472,28540,2668,4,230
28540,293,28554,141696,0,8486,28570,2661,0,240
28570,3679,28584,141782,10,8564,28600,2649,0,239
28600,294,28614,141805,28,8533,28630,2663,0,246
28630,3622,28645,141824,16,8524,28660,2667,9,273
28660,303,28675,141842,1,8463,28690,2684,0,241
28690,3599,28705,141837,0,8528,28720,2677,19,247
28720,301,28735,141886,0,8616,28750,2673,19,240
28750,3561,28765,141912,5,8635,28780,2676,18,239
28780,310,28795,141924,23,8650,28811,2670,1,221
28811,3065,28826,141936,17,8566,28841,2652,6,231
28841,780,28856,141969,0,8544,28871,2666,8,227
28871,3042,28886,141918,0,8517,28901,2662,0,253
28901,797,28916,141445,0,8618,28931,2666,1,250
28931,3010,28946,140566,11,8495,28961,2658,13,260
28961,813,28976,140302,19,8536,28991,2676,31,250
28991,3019,29007,140633,0,8409,29021,2659,24,237
29021,843,29037,141014,0,8470,29051,2654,16,227
29051,3037,29067,141304,0,8377,29082,2676,18,238
29082,1424,29097,141439,0,8589,29112,2661,1,225
29112,2443,29127,141541,11,8482,29142,2639,11,229
29142,1446,29157,141526,24,8613,29172,2647,0,230
29172,2430,29188,141405,5,8433,29202,2720,0,251
29202,1472,29218,141336,0,8558,29232,2719,0,252
29232,2435,29248,141389,3,8466,29262,2673,0,256
29262,1569,29278,141496,0,8680,29292,2665,23,262
29292,2454,29308,141632,11,8571,29322,2657,12,249
29322,1615,29338,141734,8,8698,29352,2657,12,244
29352,2422,29369,141785,5,8524,29383,2690,0,248
29383,2274,29399,141814,0,8629,29413,2710,3,240
29413,1691,29429,141842,0,8547,29443,2741,0,254
29443,2361,29459,141873,0,8757,29473,2741,0,249
29473,1706,29489,141897,15,8641,29503,2722,0,277
29503,2402,29519,141924,16,8742,29533,2705,0,279
29533,1652,29550,141932,0,8562,29563,2601,10,271
29563,2385,29575,141945,38,8673,29588,2607,25,249
29588,4095,29600,141954,59,8716,29613,2663,18,258
29613,1648,29625,141964,8,8741,29638,2705,17,251
29638,17,29650,141732,24,8664,29664,2733,3,267
29664,3204,29680,140731,28,8732,29694,2704,0,235
29694,927,29710,140126,33,8587,29724,2738,0,247
29724,3185,29736,140262,12,8636,29749,2633,0,243
29749,3842,29761,140597,37,8663,29774,2621,0,267
29774,855,29786,140917,29,8638,29799,2619,0,270
29799,202,29811,141151,14,8657,29824,2574,1,289
29824,3283,29836,141264,20,8778,29849,2592,16,253
29849,3991,29861,141321,21,8787,29874,2595,13,267
29874,905,29886,141357,0,8666,29899,2630,13,259
29899,242,29912,141352,22,8635,29924,2645,0,267
29924,3280,29937,141297,0,8705,29950,2627,0,230
29950,3341,29962,141315,52,8728,29975,2625,3,253
29975,265,29987,141310,21,8669,30000,2644,11,234
30000,656,30012,141403,35,8746,30025,2646,0,246
30025,4095,30037,141480,13,8820,30050,2616,2,238
30050,3351,30062,141588,15,8784,30075,2614,0,270
30075,272,30088,141691,8,8625,30100,2649,17,289
30100,681,30113,141732,0,8685,30125,2659,27,257
30125,4095,30138,141764,0,8732,30150,2665,14,268
30150,3281,30163,141775,0,8798,30175,2656,0,259
30175,192,30188,141795,0,8701,30200,2644,13,246
30200,688,30213,141752,18,8808,30225,2656,0,239
30225,4095,30238,141740,1,8801,30251,2625,0,243
30251,2749,30264,141869,17,8769,30276,2649,42,245
30276,0,30289,141872,0,8605,30301,2648,53,242
30301,1269,30314,141882,0,8750,30326,2653,39,262
30326,4095,30339,141895,2,8818,30351,2641,40,256
30351,2670,30364,141912,0,8819,30376,2650,17,269
30376,0,30389,141827,15,8705,30401,2651,13,280
30401,1297,30414,141171,30,8783,30426,2644,3,261
30426,4095,30440,140348,0,8696,30456,2653,17,279
30456,0,30470,140062,1,8539,30481,2653,0,266
30481,1317,30495,140398,0,8715,30506,2653,0,252
30506,4095,30520,140702,0,8776,30532,2648,16,253
30532,1978,30545,140910,12,8746,30557,2643,27,252
30557,0,30570,141015,19,8695,30582,2646,57,250
30582,2054,30595,141103,16,8775,30607,2639,54,232
30607,4095,30621,141228,6,8704,30637,2642,0,255
30637,0,30651,141298,0,8579,30667,2645,13,266
30667,4095,30681,141309,0,8716,30697,2657,0,258
30697,0,30711,141304,0,8649,30727,2669,19,248
30727,4095,30741,141311,26,8715,30757,2645,24,246
30757,0,30771,141363,0,8546,30782,2656,0,244
30782,2099,30797,141455,12,8563,30813,2651,4,235
30813,1143,30827,141587,0,8337,30843,2647,6,234
30843,2866,30857,141716,0,8518,30873,2643,0,250
30873,1098,30887,141816,0,8396,30903,2646,0,236
30903,2865,30917,141808,15,8573,30933,2645,0,246
30933,1097,30947,141804,0,8388,30963,2653,0,255
30963,2901,30978,141795,0,8502,30993,2685,10,255
30993,1067,31008,141815,0,8306,31023,2688,5,259
31023,2922,31038,141833,0,8537,31053,2663,26,252
31053,1072,31068,141874,0,8467,31083,2665,3,237
31083,2938,31098,141922,25,8643,31114,2661,2,250
31114,416,31128,141956,26,8494,31144,2666,0,222
31144,3753,31159,141872,22,8589,31174,2646,0,241
31174,407,31189,141048,0,8368,31204,2655,3,244
31204,3773,31219,140194,0,8555,31234,2656,0,263
31234,384,31249,140194,0,8438,31264,2687,0,277
31264,3792,31279,140605,16,8614,31294,2690,10,267
31294,365,31309,140986,7,8438,31324,2680,14,279
31324,3825,31340,141191,5,8528,31354,2664,0,244
31354,361,31370,141269,0,8349,31385,2682,16,239
31385,4095,31400,141334,0,8534,31415,2683,1,226
31415,0,31430,141323,0,8480,31445,2670,0,216
31445,4095,31460,141272,1,8618,31475,2663,0,232
31475,0,31490,141234,5,8481,31505,2674,0,237
31505,4095,31521,141314,11,8558,31535,2726,0,269
31535,0,31551,141419,0,8449,31565,2700,5,264
31565,4095,31581,141526,0,8650,31595,2691,2,250
31595,12,31611,141642,0,8611,31625,2687,31,247
31625,4095,31641,141731,14,8716,31655,2689,3,251
31655,21,31671,141761,26,8623,31686,2673,12,229
31686,4095,31702,141777,0,8655,31716,2734,11,240
31716,0,31732,141768,0,8599,31746,2768,0,234
31746,4095,31762,141803,0,8701,31776,2751,0,261
31776,10,31792,141826,0,8734,31806,2752,0,253
31806,4095,31822,141867,25,8778,31836,2738,0,273
31836,15,31852,141894,28,8729,31866,2711,13,263
31866,4095,31878,141903,0,8709,31891,2618,20,282
31891,2194,31903,141862,35,8700,31916,2634,13,261
31916,0,31928,141463,47,8571,31941,2676,9,257
31941,1851,31953,140725,1,8718,31966,2742,7,242
31966,4095,31978,140351,34,8728,31992,2778,0,257
31992,1483,32008,140519,12,8639,32022,2737,0,244
32022,2607,32038,140931,18,8726,32052,2764,0,256
32052,1434,32064,141192,15,8692,32077,2665,0,247
32077,0,32089,141354,61,8566,32102,2662,0,273
32102,2627,32114,141473,33,8760,32127,2633,0,258
32127,4095,32139,141549,23,8788,32152,2611,0,282
32152,1447,32164,141503,33,8773,32177,2631,36,268
32177,47,32189,141409,0,8690,32202,2642,9,276
32202,2710,32214,141315,7,8774,32227,2671,19,261
32227,4095,32240,141305,0,8708,32252,2674,2,263
32252,1362,32265,141375,0,8639,32278,2673,15,246
32278,282,32290,141494,26,8658,32303,2668,5,242
32303,3443,32315,141590,2,8802,32328,2670,0,242
32328,3762,32340,141679,13,8826,32353,2673,0,251
32353,745,32365,141749,21,8713,32378,2676,0,278
32378,366,32390,141782,14,8705,32403,2677,6,278
32403,3511,32416,141794,0,8747,32428,2700,22,282
32428,3702,32441,141806,6,8739,32453,2691,23,278
32453,641,32466,141806,0,8640,32478,2694,5,277
32478,318,32491,141822,0,8750,32503,2687,15,271
32503,3522,32516,141812,5,8831,32528,2693,0,251
32528,3687,32541,141762,27,8840,32554,2685,2,251
32554,166,32566,141903,13,8678,32579,2674,13,235
32579,841,32592,141916,3,8743,32604,2684,38,244
32604,4095,32617,141908,7,8760,32629,2676,74,240
32629,3150,32642,141779,0,8740,32654,2693,38,250
32654,80,32667,141020,1,8648,32679,2691,27,271
32679,816,32692,140377,8,8747,32704,2700,11,268
32704,4095,32717,140183,21,8771,32729,2693,28,264
32729,3109,32742,140440,9,8755,32754,2689,14,274
32754,66,32768,140829,18,8592,32784,2704,14,257
32784,4095,32798,141202,5,8716,32809,2702,0,255
32809,3071,32823,141435,0,8737,32834,2692,0,260
32834,31,32848,141480,2,8676,32860,2684,11,245
32860,1449,32873,141427,6,8812,32885,2690,36,233
32885,4095,32898,141324,21,8824,32910,2692,65,233
32910,2498,32923,141249,10,8757,32935,2687,53,250
32935,0,32949,141203,22,8618,32965,2675,0,244
32965,4095,32979,141267,11,8721,32995,2689,0,273
32995,0,33009,141448,0,8619,33025,2702,4,255
33025,4095,33039,141627,0,8781,33055,2710,14,264
33055,0,33069,141704,20,8645,33085,2711,29,238
33085,4095,33099,141730,14,8712,33110,2701,0,239
33110,2419,33125,141764,21,8542,33141,2677,3,253
33141,2269,33155,141783,4,8537,33171,2695,0,233
33171,1735,33185,141874,0,8406,33201,2708,0,244
33201,2239,33215,141903,0,8590,33231,2694,0,245
33231,1710,33245,141901,10,8423,33261,2695,0,255
33261,2240,33275,141860,15,8569,33291,2719,1,275
33291,1682,33306,141894,5,8366,33321,2718,10,263
33321,2273,33336,141893,0,8469,33351,2702,23,268
33351,1668,33366,141607,0,8335,33381,2726,12,249
33381,2288,33396,140579,0,8542,33411,2705,2,248
33411,1659,33426,140021,21,8421,33442,2713,0,240
33442,3007,33456,140195,5,8580,33472,2702,0,229
33472,974,33487,140624,15,8425,33502,2677,0,255
33502,3010,33517,140946,0,8526,33532,2685,0,256
33532,957,33547,141076,0,8424,33562,2700,0,272
33562,3037,33577,141186,0,8647,33592,2705,2,275
33592,947,33607,141239,0,8526,33622,2726,7,278
33622,3056,33637,141213,0,8621,33652,2711,18,250
33652,921,33668,141156,0,8421,33682,2714,12,262
33682,3094,33698,141143,0,8508,33713,2716,0,233
33713,370,33728,141226,0,8392,33743,2723,13,159
33743,3839,33758,141379,0,8679,33773,2723,0,197
33773,354,33788,141562,19,8530,33803,2695,0,198
33803,3810,33818,141633,1,8656,33833,2701,0,209
33833,345,33849,141695,5,8457,33863,2768,6,231
33863,3871,33879,141720,0,8578,33893,2742,13,223
33893,336,33909,141749,0,8521,33923,2725,25,196
33923,3941,33939,141805,0,8705,33953,2746,5,211
33953,387,33969,141831,13,8626,33983,2748,17,202
33983,3967,33999,141854,11,8711,34014,2742,2,189
34014,0,34030,141853,0,8574,34044,2794,0,179
34044,4095,34060,141844,0,8653,34074,2813,0,198
34074,0,34090,141311,0,8599,34104,2837,0,179
34104,4095,34120,140323,2,8697,34134,2796,0,192
34134,31,34150,140026,16,8641,34164,2761,0,195
34164,4095,34180,140340,29,8701,34194,2752,5,209
34194,0,34206,140664,16,8541,34219,2681,20,205
34219,1245,34231,140925,32,8590,34244,2730,8,180
34244,4095,34256,141085,55,8677,34269,2785,16,171
34269,2708,34281,141148,10,8737,34295,2837,1,172
34295,16,34311,141243,0,8757,34325,2795,1,162
34325,4095,34341,141236,29,8780,34355,2834,0,182
34355,11,34371,141211,5,8717,34385,2800,0,183
34385,4095,34397,141188,20,8701,34410,2723,0,195
34410,2038,34422,141229,47,8692,34435,2704,0,212
34435,0,34447,141287,41,8605,34460,2648,0,216
34460,2001,34472,141392,6,8785,34485,2693,3,203
34485,4095,34497,141506,32,8807,34510,2761,17,176
34510,2111,34522,141604,20,8785,34535,2737,17,164
34535,34,34547,141664,3,8663,34560,2768,16,176
34560,2071,34573,141703,5,8732,34586,2756,0,131
34586,4032,34598,141741,55,8733,34611,2723,1,129
34611,1347,34623,141753,35,8750,34636,2735,0,123
34636,91,34648,141781,12,8709,34661,2722,0,122
34661,2764,34673,141795,29,8834,34686,2718,0,127
34686,4095,34698,141826,13,8826,34711,2718,12,135
34711,1360,34723,141819,0,8747,34736,2663,0,132
34736,112,34749,141846,0,8655,34761,2743,9,142
34761,2746,34774,141811,6,8744,34786,2738,9,137
34786,4082,34799,141348,0,8755,34811,2745,8,138
34811,1292,34824,140482,0,8661,34836,2724,9,127
34836,93,34849,139985,16,8671,34862,2718,5,124
34862,3536,34874,140163,6,8742,34887,2707,0,204
34887,3674,34899,140507,1,8755,34912,2718,0,206
34912,718,34925,140838,0,8602,34937,2719,49,211
34937,432,34950,141060,0,8652,34962,2722,27,233
34962,3463,34975,141135,0,8730,34987,2715,26,226
34987,3536,35000,141228,0,8807,35012,2725,10,229
35012,624,35025,141264,0,8682,35037,2719,28,212
35037,449,35050,141183,15,8778,35062,2732,22,220
35062,3475,35075,141130,12,8786,35087,2710,28,193
35087,3532,35101,141150,16,8753,35112,2734,0,227
35112,613,35126,141302,11,8591,35137,2725,0,213
35137,448,35151,141387,0,8743,35163,2720,0,211
35163,4095,35176,141389,0,8809,35188,2725,30,179
35188,2995,35201,141494,14,8840,35213,2721,47,202
35213,147,35226,141516,32,8729,35238,2719,52,190
35238,941,35251,141598,8,8796,35263,2733,35,220
35263,4095,35277,141683,0,8780,35293,2728,0,224
35293,102,35307,141751,6,8620,35323,2739,0,211
35323,4095,35337,141809,0,8788,35353,2728,15,222
35353,74,35367,141887,0,8714,35383,2746,28,216
35383,4095,35397,141867,5,8829,35408,2733,0,181
35408,2953,35422,141851,13,8754,35434,2732,0,200
35434,0,35448,141789,4,8605,35464,2722,0,158
35464,4095,35478,141860,0,8650,35494,2718,0,203
35494,0,35508,141653,0,8513,35524,2711,0,175
35524,4095,35538,140697,0,8646,35554,2704,0,200
35554,0,35568,140175,24,8496,35584,2722,0,194
35584,4095,35598,140381,14,8603,35614,2732,15,206
35614,0,35629,140804,20,8436,35644,2730,26,196
35644,4095,35659,141132,0,8528,35674,2744,9,198
35674,0,35689,141292,0,8443,35704,2730,28,183
35704,4095,35719,141402,0,8623,35735,2710,2,233
35735,0,35749,141457,28,8507,35765,2723,0,232
35765,4095,35779,141319,16,8605,35795,2721,0,246
35795,0,35810,141216,5,8483,35825,2710,0,234
35825,4095,35840,141276,0,8545,35855,2723,0,254
35855,0,35870,141382,0,8549,35885,2763,3,260
35885,4095,35900,141528,2,8666,35915,2788,10,261
35915,0,35930,141660,16,8651,35945,2773,15,267
35945,4095,35960,141747,4,8635,35975,2781,17,254
35975,0,35991,141760,9,8551,36006,2746,8,241
36006,3817,36021,141776,5,8546,36036,2744,9,248
36036,162,36051,141801,0,8573,36066,2721,0,229
36066,3754,36081,141835,1,8626,36096,2723,0,220
36096,171,36111,141859,8,8640,36126,2728,0,244
36126,3756,36141,141875,20,8606,36156,2732,1,274
36156,187,36172,141898,5,8571,36186,2749,13,245
36186,3767,36202,141884,0,8543,36216,2745,13,250
36216,215,36232,141665,0,8611,36246,2732,25,236
36246,3792,36262,140735,0,8578,36276,2716,22,241
36276,250,36292,140287,23,8625,36307,2715,6,231
36307,3234,36322,140476,18,8572,36337,2709,1,239
36337,621,36353,140901,8,8600,36367,2811,0,236
36367,3255,36383,141207,0,8515,36397,2777,0,249
36397,634,36413,141393,0,8661,36427,2766,0,263
36427,3275,36443,141494,0,8651,36457,2729,2,279
36457,717,36473,141523,8,8750,36487,2713,20,256
36487,3262,36503,141406,16,8602,36517,2700,30,268
36517,729,36529,141311,13,8593,36542,2699,15,252
36542,4016,36554,141322,52,8651,36567,2752,32,248
36567,3202,36579,141396,46,8680,36593,2786,8,267
36593,0,36609,141510,0,8713,36623,2774,1,241
36623,4095,36639,141677,21,8798,36653,2809,0,249
36653,57,36669,141756,30,8742,36683,2820,0,237
36683,4095,36700,141791,24,8751,36713,2685,0,270
36713,46,36725,141813,26,8589,36738,2660,3,271
36738,1365,36750,141853,52,8706,36763,2633,0,253
36763,4095,36775,141852,21,8797,36788,2637,14,271
36788,2608,36800,141849,24,8829,36813,2661,20,259
36813,133,36825,141853,13,8715,36838,2701,32,252
36838,1466,36850,141882,1,8823,36864,2793,7,242
36864,4095,36881,141908,2,8768,36894,2687,7,256
36894,0,36906,141938,35,8592,36919,2699,0,239
36919,2026,36931,141959,47,8740,36944,2692,0,232
36944,4095,36956,141896,15,8833,36969,2703,0,251
36969,1987,36981,141355,16,8816,36994,2681,0,259
36994,28,37006,140587,12,8665,37019,2666,1,275
37019,2125,37031,140301,17,8758,37044,2639,0,246
37044,4095,37057,140488,0,8732,37069,2725,11,270
37069,1934,37082,140866,0,8665,37094,2719,32,255
37094,0,37107,141161,0,8598,37119,2725,0,256
37119,2113,37132,141369,0,8789,37144,2713,9,242
37144,4095,37157,141476,0,8828,37170,2704,5,252
37170,1281,37182,141566,11,8777,37195,2682,7,238
37195,142,37207,141570,0,8711,37220,2695,0,247
37220,2900,37233,141487,0,8771,37245,2698,37,217
37245,4095,37258,141355,2,8715,37270,2709,23,254
37270,1180,37283,141308,0,8657,37295,2701,13,261
37295,80,37308,141393,0,8709,37320,2720,15,247
37320,2890,37333,141510,3,8827,37345,2722,16,204
37345,4081,37358,141550,5,8852,37370,2725,17,232
37370,1151,37383,141622,16,8722,37395,2719,7,222
37395,82,37409,141712,18,8731,37420,2727,0,222
37420,2899,37434,141850,0,8743,37446,2732,11,201
37446,3561,37459,141827,0,8770,37471,2730,19,216
37471,470,37484,141850,0,8699,37496,2726,32,231
37496,437,37509,141866,17,8813,37521,2726,46,221
37521,3682,37534,141821,26,8859,37546,2734,24,204
37546,3520,37559,141817,12,8836,37571,2744,5,235
37571,461,37585,141856,12,8700,37601,2744,7,288
37601,3705,37615,141927,0,8762,37631,2753,10,276
37631,454,37645,142002,0,8638,37661,2747,18,269
37661,3760,37675,142072,0,8824,37686,2753,0,258
37686,3444,37700,141988,10,8849,37711,2736,0,261
37711,427,37725,141661,33,8706,37737,2733,18,256
37737,987,37750,140794,9,8740,37762,2755,27,247
37762,4095,37776,140458,0,8675,37792,2723,0,238
37792,0,37806,140634,0,8473,37822,2733,0,239
37822,4095,37836,141095,0,8653,37852,2729,0,271
37852,0,37866,141480,0,8521,37882,2744,0,259
37882,4095,37896,141610,17,8648,37912,2737,9,255
37912,0,37926,141662,20,8454,37942,2734,13,245
37942,4095,37957,141671,2,8520,37972,2754,18,253
37972,0,37987,141536,0,8328,38002,2738,19,234
38002,4095,38017,141428,0,8534,38033,2733,0,231
38033,0,38047,141525,0,8449,38063,2729,0,215
38063,4095,38077,141611,19,8613,38093,2714,0,234
38093,0,38107,141671,14,8478,38123,2707,0,225
38123,4095,38138,141774,1,8544,38153,2723,0,261
38153,0,38168,141826,0,8450,38183,2742,1,259
38183,4095,38198,141863,0,8644,38213,2749,9,265
38213,0,38228,141910,0,8588,38243,2746,20,237
38243,4095,38258,141923,10,8697,38273,2727,9,230
38273,0,38288,141936,21,8604,38304,2718,5,222
38304,4095,38319,141939,11,8600,38334,2715,0,216
38334,0,38349,141951,0,8512,38364,2725,1,219
38364,4095,38379,141989,0,8649,38394,2718,0,232
38394,0,38409,141993,3,8636,38424,2724,0,245
38424,4095,38439,141704,24,8654,38454,2724,0,255
38454,0,38469,140906,11,8574,38484,2737,10,228
38484,4095,38500,140671,0,8526,38514,2719,20,247
38514,0,38530,140929,0,8522,38544,2725,7,228
38544,4095,38560,141306,0,8632,38574,2723,30,211
38574,22,38590,141586,0,8668,38605,2727,0,196
38605,3678,38620,141721,28,8679,38635,2717,0,194
38635,247,38650,141770,8,8663,38665,2716,0,211
38665,3670,38681,141720,0,8578,38695,2805,0,226
38695,269,38711,141572,0,8616,38725,2812,0,232
38725,3679,38741,141497,9,8665,38755,2778,1,246
38755,320,38771,141563,18,8734,38785,2757,5,231
38785,3719,38801,141689,25,8679,38815,2775,33,282
38815,318,38831,141790,21,8724,38845,2767,6,260
38845,3651,38857,141852,28,8688,38871,2850,3,261
38871,111,38887,141877,0,8584,38901,2784,2,243
38901,4095,38917,141907,0,8779,38931,2818,0,246
38931,122,38947,141972,0,8696,38961,2848,0,254
38961,4095,38977,141976,34,8819,38991,2845,0,278
38991,98,39007,141979,7,8703,39021,2814,0,282
39021,4095,39033,141974,17,8729,39046,2705,9,262
39046,3114,39058,142000,52,8753,39071,2712,1,271
39071,69,39083,141999,29,8664,39096,2742,10,258
39096,847,39108,141952,14,8772,39121,2759,16,261
39121,4095,39133,141400,13,8822,39146,2810,11,252
39146,3152,39158,140701,26,8768,39172,2872,3,253
39172,5,39188,140440,10,8690,39202,2832,0,236
39202,4095,39214,140664,13,8697,39227,2758,1,237
39227,2514,39239,141027,31,8729,39252,2751,0,247
39252,0,39264,141297,21,8643,39277,2750,0,256
39277,1493,39289,141468,3,8801,39302,2735,0,252
39302,4095,39314,141545,27,8825,39327,2690,0,279
39327,2576,39339,141594,20,8811,39352,2679,8,269
39352,30,39364,141582,7,8674,39377,2677,8,255
39377,1557,39390,141477,0,8733,39402,2747,14,238
39402,4095,39415,141395,0,8754,39427,2748,2,253
39427,2460,39440,141357,0,8763,39453,2739,0,241
39453,0,39465,141450,3,8712,39478,2744,9,245
39478,2345,39490,141551,29,8842,39503,2747,0,237
39503,4095,39515,141653,11,8853,39528,2757,0,242
39528,1797,39540,141712,0,8775,39553,2750,0,288
39553,4,39566,141809,3,8644,39578,2785,12,305
39578,2290,39591,141832,1,8773,39603,2757,23,319
39603,4095,39616,141854,1,8789,39628,2769,42,311
39628,1674,39641,141858,0,8779,39653,2758,15,313
39653,0,39666,141846,0,8745,39678,2753,7,314
39678,2310,39691,141828,13,8876,39703,2727,2,299
39703,4095,39716,141832,26,8841,39728,2717,7,296
39728,1622,39742,141895,5,8688,39754,2740,1,287
39754,170,39767,141950,0,8691,39779,2743,23,299
39779,3118,39792,141919,0,8772,39804,2730,54,286
39804,3925,39817,141594,0,8820,39829,2751,45,298
39829,919,39842,140724,0,8673,39854,2755,23,305
39854,161,39867,140093,3,8716,39879,2760,7,324
39879,3134,39892,140074,32,8770,39904,2777,19,306
39904,3841,39918,140400,21,8747,39934,2786,8,306
39934,202,39948,140865,11,8697,39964,2771,18,313
39964,3794,39978,141156,0,8754,39989,2769,0,291
39989,759,40003,141214,10,8692,40014,2754,0,299
40014,211,40028,141212,14,8809,40040,2757,15,301
40040,4048,40053,141158,16,8844,40065,2737,40,280
40065,3312,40078,141168,14,8782,40090,2759,45,295
40090,232,40104,141160,7,8603,40120,2735,0,297
40120,4095,40134,141160,0,8655,40150,2763,0,313
40150,243,40164,141286,0,8530,40180,2780,0,325
40180,4048,40194,141476,1,8647,40210,2795,4,327
40210,231,40224,141562,8,8434,40240,2705,25,310
40240,4095,40254,141623,5,8513,40270,2834,21,302
40270,217,40285,141687,2,8222,40300,2694,21,289
40300,4095,40315,141694,0,8363,40331,2741,0,297
40331,0,40345,141799,0,8233,40361,2716,7,266
40361,4095,40375,141865,0,8510,40391,2688,0,282
40391,0,40405,141850,24,8368,40421,2714,0,296
40421,4095,40435,141803,2,8543,40451,2716,0,306
40451,0,40466,141825,3,8363,40481,2727,0,298
40481,4095,40496,141843,0,8531,40511,2746,3,304
40511,0,40526,141479,0,8470,40541,2727,12,297
40541,4095,40556,140510,0,8637,40571,2745,3,288
40571,0,40586,139986,6,8537,40602,2721,10,276
40602,4095,40616,140145,25,8605,40632,2728,5,283
40632,0,40647,140517,4,8443,40662,2705,0,285
40662,4095,40677,140806,0,8523,40692,2696,0,288
40692,0,40707,140915,0,8484,40722,2720,0,291
40722,4095,40737,141019,0,8590,40752,2728,0,314
40752,0,40767,141109,22,8513,40782,2760,0,306
40782,4095,40797,141099,6,8495,40812,2760,15,306
40812,0,40828,141077,3,8382,40842,2723,31,285
40842,4095,40858,141085,0,8431,40872,2734,6,294
40872,2,40888,141181,0,8522,40903,2731,4,272
40903,3997,40918,141354,19,8610,40933,2731,5,275
40933,59,40948,141497,23,8638,40963,2718,0,271
40963,3955,40978,141568,10,8640,40993,2716,0,291
40993,63,41009,141614,8,8587,41023,2828,0,296
41023,3949,41039,141623,0,8618,41053,2782,0,305
41053,89,41069,141685,0,8721,41083,2746,19,308
41083,3999,41099,141725,9,8753,41113,2747,4,317
41113,116,41129,141756,30,8778,41143,2739,28,293
41143,3953,41159,141761,0,8717,41173,2731,23,295
41173,90,41185,141805,30,8568,41199,2831,4,291
41199,3684,41215,141819,0,8719,41229,2800,0,293
41229,497,41245,141832,0,8680,41259,2850,0,297
41259,3776,41275,141401,0,8790,41289,2829,0,316
41289,480,41305,140361,16,8663,41319,2841,4,309
41319,3776,41335,139985,22,8727,41349,2820,0,321
41349,427,41361,140165,19,8582,41374,2696,11,322
41374,492,41386,140521,52,8611,41399,2728,9,328
41399,3807,41411,140812,40,8745,41424,2731,25,299
41424,3443,41436,140987,11,8815,41449,2789,17,315
41449,448,41461,141076,28,8703,41474,2853,7,307
41474,609,41486,141145,18,8763,41500,2843,0,291
41500,4095,41516,141170,19,8794,41530,2815,0,291
41530,0,41542,141133,25,8595,41555,2760,0,290
41555,1072,41567,141082,58,8702,41580,2741,0,294
41580,4095,41592,141094,40,8792,41605,2752,0,317
41605,2880,41617,141155,19,8838,41630,2741,0,324
41630,16,41642,141251,30,8717,41655,2715,5,327
41655,1168,41667,141372,16,8827,41680,2731,19,330
41680,4095,41692,141472,6,8833,41705,2724,24,318
41705,2854,41718,141559,0,8791,41730,2786,0,295
41730,0,41743,141575,0,8620,41755,2773,7,307
41755,1145,41768,141632,0,8805,41781,2774,0,296
41781,4095,41793,141662,11,8845,41806,2770,1,280
41806,2257,41818,141669,24,8866,41831,2757,0,297
41831,31,41843,141691,12,8732,41856,2763,0,315
41856,1874,41868,141690,16,8847,41881,2781,0,324
41881,4095,41894,141707,1,8774,41906,2787,17,325
41906,2161,41919,141733,0,8743,41931,2795,22,329
41931,0,41944,141763,0,8660,41956,2794,7,320
41956,1859,41969,141800,0,8866,41981,2784,10,332
41981,4095,41994,141805,0,8873,42006,2805,24,305
42006,2089,42019,141669,15,8810,42031,2784,0,304
42031,0,42044,141076,5,8697,42057,2802,7,306
42057,2671,42070,140426,16,8713,42082,2791,25,281
42082,4095,42095,140126,0,8692,42107,2787,36,296
42107,1374,42120,140302,0,8649,42132,2788,72,288
42132,14,42145,140655,0,8719,42157,2793,27,309
42157,2645,42170,140917,2,8838,42182,2788,22,309
42182,4095,42195,141051,13,8825,42207,2806,15,324
42207,1321,42220,141204,20,8709,42232,2801,14,318
42232,26,42246,141301,3,8673,42262,2818,14,306
42262,4095,42276,141281,0,8759,42292,2800,39,288
42292,33,42306,141232,0,8730,42317,2807,0,300
42317,2721,42331,141142,0,8840,42343,2799,8,281
42343,3648,42356,141087,19,8856,42368,2786,35,286
42368,624,42381,141174,17,8716,42393,2783,35,287
42393,354,42407,141305,19,8753,42423,2774,0,290
42423,3600,42437,141465,0,8723,42453,2784,0,314
42453,368,42467,141628,0,8652,42483,2789,3,317
42483,3556,42497,141739,1,8699,42513,2789,0,308
42513,362,42527,141773,7,8673,42543,2818,15,310
42543,3506,42557,141731,33,8622,42573,2795,22,288
42573,376,42588,141703,26,8523,42603,2790,33,284
42603,3485,42618,141722,0,8415,42634,2786,0,290
42634,885,42648,141770,0,8462,42664,2785,2,273
42664,2945,42678,141875,0,8504,42694,2783,20,281
42694,886,42708,141906,7,8547,42724,2763,1,291
42724,2941,42738,141860,21,8521,42754,2771,4,313
42754,911,42769,141663,15,8497,42784,2788,0,316
42784,2927,42799,140682,0,8381,42814,2810,13,302
42814,912,42829,140031,0,8487,42844,2778,33,292
42844,2875,42859,140125,0,8495,42874,2787,11,301
42874,919,42889,140559,12,8638,42904,2775,23,272
42904,2878,42919,140909,16,8545,42935,2767,2,278
42935,1562,42950,141036,11,8599,42965,2774,5,264
42965,2319,42980,141123,0,8459,42995,2767,12,282
42995,1597,43010,141183,0,8585,43025,2787,0,292
43025,2281,43040,141119,0,8487,43055,2791,0,316
43055,1600,43070,141087,7,8604,43085,2794,11,326
43085,2256,43100,141119,11,8400,43115,2794,21,310
43115,1642,43131,141203,2,8483,43145,2772,25,293
43145,2258,43161,141340,0,8305,43175,2770,12,303
43175,1707,43191,141462,0,8540,43206,2769,6,274
43206,1530,43221,141568,0,8448,43236,2769,0,276
43236,2409,43251,141627,13,8643,43266,2770,0,278
43266,1500,43281,141664,20,8485,43296,2761,0,274
43296,2449,43312,141649,2,8595,43326,2843,5,304
43326,1491,43342,141663,0,8450,43356,2838,0,293
43356,2501,43372,141707,0,8700,43386,2770,19,310
43386,1520,43402,141755,0,8626,43416,2768,21,317
43416,2582,43432,141792,18,8783,43446,2774,22,309
43446,1500,43462,141837,4,8625,43476,2765,7,300
43476,2594,43488,141855,6,8722,43502,2857,11,285
43502,3676,43518,141870,4,8682,43532,2811,12,275
43532,268,43548,141775,0,8768,43562,2842,0,301
43562,3706,43578,140829,0,8726,43592,2833,0,303
43592,306,43608,139895,22,8754,43622,2825,6,326
43622,3695,43638,139867,24,8676,43652,2789,6,320
43652,290,43664,140145,21,8584,43677,2726,2,317
43677,3362,43689,140509,36,8692,43702,2716,26,309
43702,3680,43714,140703,35,8711,43727,2774,7,297
43727,722,43739,140804,11,8676,43752,2808,11,313
43752,363,43764,140865,17,8730,43778,2870,0,303
43778,4095,43794,140960,18,8821,43808,2821,1,286
43808,186,43824,140994,7,8721,43838,2857,0,303
43838,4095,43850,140970,24,8735,43863,2741,0,288
43863,3134,43875,140953,26,8738,43888,2758,0,324
43888,146,43900,141020,28,8631,43913,2733,0,316
43913,823,43925,141108,13,8782,43938,2698,0,322
43938,4095,43950,141228,19,8836,43963,2720,15,311
43963,3173,43975,141335,16,8845,43988,2744,14,313
43988,176,44000,141432,7,8705,44013,2775,25,317
44013,875,44026,141490,2,8736,44038,2781,0,301
44038,4095,44051,141530,9,8774,44064,2774,3,283
44064,2551,44076,141586,40,8802,44089,2775,0,287
44089,0,44101,141605,24,8742,44114,2765,0,307
44114,1485,44126,141626,19,8861,44139,2741,0,285
44139,4095,44151,141651,17,8874,44164,2756,0,305
44164,2571,44176,141677,3,8840,44189,2745,0,319
44189,3,44202,141691,5,8673,44214,2774,30,321
44214,1499,44227,141718,0,8773,44239,2767,13,311
44239,4095,44252,141754,0,8796,44264,2800,17,312
44264,2446,44277,141782,0,8854,44289,2773,13,306
44289,0,44302,141787,0,8761,44314,2781,4,301
44314,1519,44327,141782,11,8879,44340,2786,10,284
44340,4095,44352,141906,6,8863,44365,2769,0,291
44365,1815,44378,141903,10,8764,44390,2780,26,285
44390,0,44403,141540,0,8627,44415,2781,56,324
44415,2255,44428,140519,0,8731,44440,2777,19,298
44440,4095,44453,139839,0,8747,44465,2779,25,316
44465,1680,44478,139773,0,8710,44490,2769,6,321
44490,0,44503,140008,16,8709,44515,2770,16,320
44515,2288,44528,140354,0,8783,44540,2759,18,321
44540,4095,44554,140657,8,8770,44570,2775,19,310
44570,0,44584,140801,2,8635,44595,2786,0,311
44595,2304,44609,140935,0,8759,44621,2768,1,292
44621,3952,44634,140914,0,8809,44646,2782,15,294
44646,976,44659,140964,0,8729,44671,2776,40,280
44671,176,44684,140904,21,8785,44696,2793,67,301
44696,3071,44709,140890,13,8816,44721,2779,39,288
44721,3874,44735,140937,11,8792,44751,2770,0,312
44751,171,44765,141093,0,8696,44781,2800,0,315
44781,3837,44795,141276,0,8768,44811,2792,14,310
44811,176,44825,141448,0,8754,44841,2790,20,304
44841,3802,44855,141532,15,8792,44866,2776,0,314
44866,881,44880,141541,10,8607,44891,2786,0,299
44891,191,44905,141582,27,8621,44917,2783,5,280
44917,3921,44931,141598,0,8567,44947,2771,0,303
44947,322,44961,141637,0,8320,44977,2783,0,289
44977,3958,44991,141744,0,8511,45007,2782,0,302
45007,306,45021,141773,5,8357,45037,2781,0,313
45037,3988,45051,141771,10,8522,45067,2798,0,317
45067,247,45081,141769,3,8321,45097,2784,19,318
45097,3979,45112,141814,0,8424,45127,2802,23,304
45127,257,45142,141825,0,8276,45157,2783,10,288
45157,3998,45172,141855,0,8568,45188,2780,0,295
45188,0,45202,141976,1,8472,45218,2787,2,272
45218,4095,45232,141971,29,8659,45248,2774,6,280
45248,0,45262,141947,14,8494,45278,2764,0,282
45278,4095,45293,141726,0,8594,45308,2790,0,297
45308,0,45323,140580,0,8402,45338,2798,0,326
45338,4095,45353,139861,0,8610,45368,2805,3,304
45368,0,45383,140024,14,8511,45398,2811,8,303
45398,4095,45413,140462,15,8631,45428,2814,23,304
45428,0,45444,140818,6,8463,45458,2790,17,298
45458,4095,45474,140982,0,8485,45489,2800,13,285
45489,0,45504,141050,0,8376,45519,2790,0,276
45519,4095,45534,141118,0,8558,45549,2778,0,294
45549,0,45564,141144,12,8489,45579,2791,0,293
45579,4095,45594,141081,9,8578,45609,2798,0,307
45609,0,45625,141084,11,8476,45639,2858,8,316
45639,4095,45655,141164,0,8495,45669,2819,10,312
45669,0,45685,141290,5,8513,45699,2831,15,305
45699,4095,45715,141459,0,8657,45729,2829,4,293
45729,19,45745,141584,18,8688,45760,2817,20,279
45760,4001,45775,141653,27,8718,45790,2828,0,291
45790,43,45806,141676,18,8682,45820,2885,0,266
45820,3990,45836,141709,0,8643,45850,2916,0,297
45850,60,45866,141718,0,8695,45880,2920,0,289
45880,4023,45896,141748,8,8753,45910,2900,0,326
45910,108,45926,141791,7,8817,45940,2862,2,315
45940,4017,45956,141820,19,8780,45970,2849,16,307
45970,93,45987,141866,6,8763,46000,2814,16,302
46000,3952,46012,141890,41,8724,46025,2897,6,309
46025,1167,46037,141914,62,8702,46051,2950,21,302
46051,432,46067,141911,5,8830,46081,2875,7,298
46081,3519,46097,141967,0,8791,46111,2952,0,308
46111,473,46127,141996,24,8859,46141,2952,0,301
46141,3505,46157,141986,21,8746,46171,2930,0,308
46171,448,46183,141626,28,8658,46196,2824,0,327
46196,3728,46208,140771,51,8718,46221,2778,0,317
46221,3478,46233,140207,34,8723,46246,2803,8,316
46246,511,46258,140217,18,8665,46271,2825,24,316
46271,527,46283,140566,21,8739,46296,2868,6,312
46296,3846,46308,140930,15,8833,46321,2924,21,294
46321,3538,46333,141209,0,8819,46347,2955,0,295
46347,0,46359,141365,6,8652,46372,2853,11,306
46372,1004,46384,141452,44,8722,46397,2882,0,291
46397,4095,46409,141485,33,8783,46422,2850,0,299
46422,2941,46434,141462,15,8848,46447,2851,0,317
46447,30,46459,141331,20,8735,46472,2824,0,324
46472,1110,46484,141236,26,8826,46497,2825,0,330
46497,4095,46509,141267,2,8825,46522,2792,25,313
46522,2928,46535,141368,9,8796,46547,2867,5,330
46547,0,46560,141470,1,8627,46572,2862,19,319
46572,1070,46585,141581,0,8788,46597,2872,0,296
46597,4095,46610,141668,0,8854,46623,2861,18,297
46623,2321,46635,141745,23,8855,46648,2849,3,297
46648,24,46660,141796,2,8761,46673,2876,0,301
46673,1775,46685,141820,7,8847,46698,2865,0,294
46698,4095,46711,141835,0,8805,46723,2870,54,299
46723,2275,46736,141843,0,8766,46748,2883,18,329
46748,0,46761,141827,0,8670,46773,2864,11,333
46773,1755,46786,141849,0,8860,46798,2883,15,325
46798,4095,46811,141867,3,8884,46823,2887,12,326
46823,2218,46836,141832,29,8865,46848,2868,15,309
46848,0,46861,141863,3,8752,46873,2877,0,317
46873,1775,46887,141892,27,8820,46898,2861,0,287
46898,4095,46912,142016,10,8778,46924,2850,0,294
46924,1514,46937,141999,0,8725,46949,2832,25,284
46949,0,46962,141972,0,8749,46974,2857,41,306
46974,2536,46987,141570,0,8883,46999,2848,55,301
46999,4095,47012,140698,19,8833,47024,2858,18,325
47024,1435,47037,140187,24,8699,47049,2854,17,324
47049,0,47063,140279,8,8664,47079,2854,0,332
47079,4095,47093,140735,4,8728,47109,2866,15,329
47109,0,47123,141231,0,8694,47139,2849,14,324
47139,4095,47153,141514,0,8842,47164,2851,0,307
47164,1392,47178,141528,9,8712,47189,2849,0,294
47189,0,47203,141583,27,8761,47215,2854,15,297
47215,3344,47228,141485,8,8773,47240,2837,44,268
47240,3693,47254,141443,7,8684,47270,2793,0,284
47270,304,47284,141351,0,8563,47300,2812,0,287
47300,3663,47314,141451,0,8604,47330,2811,0,322
47330,305,47344,141568,0,8589,47360,2836,4,309
47360,3614,47374,141678,14,8595,47390,2858,15,320
47390,305,47404,141741,1,8498,47420,2841,22,306
47420,3571,47435,141818,11,8427,47450,2854,27,308
47450,311,47465,141863,8,8423,47480,2838,26,281
47480,3537,47495,141901,0,8496,47511,2836,10,281
47511,784,47525,141979,0,8567,47541,2828,1,265
47541,3023,47555,141981,13,8588,47571,2809,4,291
47571,804,47585,141944,20,8594,47601,2830,0,293
47601,3021,47616,141946,0,8520,47631,2824,0,313
47631,816,47646,141966,7,8570,47661,2850,11,312
47661,3007,47676,141989,0,8596,47691,2836,19,301
47691,823,47706,142033,1,8727,47721,2830,27,300
47721,2986,47736,142088,21,8669,47751,2836,20,296
47751,848,47766,141980,27,8696,47782,2825,5,283
47782,2445,47797,141041,0,8447,47812,2823,0,285
47812,1452,47827,140162,0,8493,47842,2810,0,295
47842,2426,47857,140163,0,8417,47872,2835,0,308
47872,1450,47887,140629,0,8575,47902,2823,0,326
47902,2394,47917,141047,31,8453,47932,2829,0,327
47932,1479,47947,141259,9,8539,47962,2831,7,307
47962,2373,47978,141344,1,8307,47992,2822,24,318
47992,1520,48008,141369,2,8479,48022,2819,8,286
48022,2386,48038,141385,0,8429,48052,2829,0,292
48052,1593,48068,141338,7,8639,48083,2827,2,283
48083,1664,48098,141330,15,8524,48113,2806,0,276
48113,2270,48128,141387,17,8641,48143,2798,0,288
48143,1663,48159,141496,0,8436,48173,2869,0,288
48173,2308,48189,141596,0,8630,48203,2871,0,313
48203,1673,48219,141718,0,8586,48233,2833,0,326
48233,2383,48249,141807,4,8772,48263,2819,15,320
48263,1662,48279,141850,29,8659,48293,2814,24,301
48293,2413,48310,141866,31,8780,48323,2810,12,147
48323,1602,48335,141896,28,8720,48349,2892,8,134
48349,167,48365,141883,0,8741,48379,2857,11,113
48379,3835,48395,141918,0,8789,48409,2893,0,127
48409,223,48425,141973,0,8847,48439,2896,0,128
48439,3855,48455,141974,28,8795,48469,2884,0,171
48469,227,48485,141990,35,8810,48499,2854,0,160
48499,3786,48511,142028,32,8760,48524,2764,0,163
48524,867,48536,142045,48,8705,48549,2782,24,169
48549,242,48561,141972,41,8699,48574,2813,15,163
48574,3269,48586,141255,13,8811,48599,2851,12,157
48599,3888,48611,140382,16,8791,48625,2921,1,162
48625,316,48641,140093,15,8675,48655,2872,1,151
48655,4071,48672,140381,25,8743,48685,2830,3,141
48685,273,48697,140785,38,8607,48710,2821,3,155
48710,671,48722,141079,68,8666,48735,2826,0,161
48735,4095,48747,141232,30,8808,48760,2791,6,155
48760,3280,48772,141306,24,8858,48785,2791,4,180
48785,306,48797,141359,9,8745,48810,2763,22,170
48810,779,48822,141375,7,8779,48835,2799,0,167
48835,4095,48848,141341,8,8801,48860,2829,15,148
48860,3264,48873,141261,0,8762,48885,2839,12,161
48885,240,48898,141280,0,8645,48911,2844,8,158
48911,1297,48923,141361,34,8786,48936,2824,13,161
48936,4095,48948,141442,20,8863,48961,2832,10,141
48961,2709,48973,141563,10,8884,48986,2817,0,153
48986,38,48998,141675,20,8748,49011,2810,0,164
49011,1395,49024,141740,6,8828,49036,2826,9,177
49036,4095,49049,141774,7,8778,49061,2823,13,163
49061,2625,49074,141823,0,8789,49086,2849,30,174
49086,0,49099,141845,0,8730,49111,2818,22,176
49111,1349,49124,141843,0,8888,49136,2817,8,170
49136,4095,49149,141834,19,8900,49161,2827,5,165
49161,2579,49174,141799,26,8864,49186,2816,1,143
49186,0,49199,141853,8,8724,49212,2815,2,152
49212,2127,49225,141949,12,8801,49237,2824,33,132
49237,4095,49250,141951,0,8809,49262,2839,46,150
49262,1904,49275,141971,0,8803,49287,2844,50,163
49287,0,49300,141967,1,8766,49312,2837,32,166
49312,2114,49325,141989,8,8896,49337,2821,4,182
49337,4095,49350,141807,28,8893,49362,2838,17,190
49362,1856,49375,141077,6,8731,49387,2863,22,172
49387,0,49401,140318,2,8637,49417,2862,9,162
49417,4095,49431,140077,1,8737,49447,2868,4,176
49447,0,49461,140515,0,8708,49472,2879,0,157
49472,2189,49486,140881,0,8868,49498,2875,0,145
49498,4046,49511,141036,2,8861,49523,2871,19,150
49523,1099,49536,141172,22,8738,49548,2884,39,137
49548,117,49562,141282,18,8748,49578,2859,0,132
49578,3967,49592,141360,9,8762,49608,2884,0,154
49608,128,49622,141403,0,8701,49638,2878,1,131
49638,3966,49652,141397,0,8809,49668,2887,0,155
49668,139,49682,141355,6,8750,49698,2906,19,146
49698,3934,49712,141371,19,8770,49728,2894,22,171
49728,135,49743,141486,4,8669,49758,2903,6,154
49758,3873,49773,141611,0,8586,49789,2915,3,166
49789,528,49803,141743,3,8586,49819,2917,4,181
49819,3365,49833,141879,0,8681,49849,2894,0,158
49849,538,49863,141896,17,8696,49879,2905,0,157
49879,3344,49893,141866,28,8682,49909,2910,0,177
49909,542,49924,141870,23,8648,49939,2923,0,193
49939,3316,49954,141863,0,8561,49969,2921,0,196
49969,549,49984,141874,0,8643,49999,2932,27,189
49999,3302,50014,141901,0,8690,50029,2935,10,180
50029,573,50044,141989,14,8743,50059,2938,27,147
50059,3271,50074,141998,25,8669,50090,2917,12,205
50090,1142,50105,142004,18,8670,50120,2906,0,159
50120,2704,50135,141736,0,8558,50150,2919,0,138
50150,1153,50165,140749,0,8641,50180,2896,0,174
50180,2702,50195,140218,0,8576,50210,2906,0,194
50210,1166,50225,140438,20,8693,50240,2936,7,196
50240,2688,50255,140885,11,8567,50270,2914,17,210
50270,1202,50286,141211,0,8637,50300,2927,16,179
50300,2672,50316,141384,0,8450,50330,2936,7,227
50330,1234,50346,141491,0,8621,50361,2950,17,216
50361,2035,50376,141530,0,8571,50391,2931,2,199
50391,1907,50406,141414,10,8727,50421,2902,3,205
50421,2001,50436,141308,9,8566,50451,2912,0,216
50451,1935,50467,141315,14,8647,50481,3013,0,226
50481,2000,50497,141433,0,8500,50511,2982,0,243
50511,1984,50527,141580,0,8714,50541,2955,6,220
50541,2000,50557,141712,4,8637,50571,2938,29,238
50571,2061,50587,141822,24,8796,50601,2939,30,234
50601,1995,50617,141834,6,8645,50631,2941,8,224
50631,2078,50643,141870,2,8724,50657,3021,1,214
50657,4014,50673,141855,0,8716,50687,2980,0,209
50687,63,50703,141862,0,8769,50717,3021,0,195
50717,4067,50733,141909,0,8822,50747,3022,0,224
50747,107,50763,141950,22,8853,50777,2996,0,223
50777,4050,50793,141960,24,8785,50807,2960,0,232
50807,82,50824,141995,0,8760,50837,2850,9,253
50837,3984,50849,141956,37,8762,50862,2873,3,258
50862,1178,50874,141624,72,8718,50887,2901,33,234
50887,112,50899,140790,13,8660,50912,2960,0,236
50912,2960,50924,140206,22,8769,50938,3010,0,227
50938,3555,50954,140259,17,8714,50968,2952,10,225
50968,481,50984,140690,23,8771,50998,2985,7,226
50998,3479,51010,141041,21,8746,51023,2894,0,224
51023,485,51035,141252,50,8650,51048,2913,0,245
51048,490,51060,141361,37,8713,51073,2899,0,269
51073,3762,51085,141445,16,8873,51098,2861,3,236
51098,3522,51110,141447,24,8866,51123,2861,9,256
51123,525,51135,141370,26,8730,51148,2876,16,250
51148,579,51160,141286,0,8764,51173,2887,16,232
51173,3831,51186,141257,0,8786,51198,2909,3,211
51198,3449,51211,141298,3,8783,51224,2892,0,153
51224,14,51236,141428,53,8690,51249,2897,6,126
51249,1072,51261,141527,16,8822,51274,2905,0,124
51274,4095,51286,141632,21,8892,51299,2907,0,116
51299,2919,51311,141716,21,8886,51324,2885,0,122
51324,37,51336,141758,9,8732,51349,2886,0,124
51349,1140,51362,141816,0,8823,51374,2918,5,135
51374,4095,51387,141819,7,8797,51399,2911,32,134
51399,2838,51412,141822,0,8834,51424,2894,9,107
51424,0,51437,141846,0,8769,51449,2898,22,115
51449,1147,51462,141838,14,8894,51474,2901,2,111
51474,4095,51487,141795,20,8908,51499,2910,2,105
51499,2797,51512,141818,26,8884,51525,2898,0,96
51525,9,51538,141930,8,8699,51550,2894,36,106
51550,1815,51563,141939,0,8806,51575,2906,59,85
51575,4095,51588,141908,0,8822,51600,2895,56,110
51600,2147,51613,141459,5,8835,51625,2897,39,153
51625,0,51638,140477,13,8711,51650,2898,24,172
51650,1855,51663,139847,29,8832,51675,2898,11,169
51675,4095,51688,139905,15,8804,51700,2898,21,170
51700,2114,51714,140250,0,8698,51730,2927,12,186
51730,1889,51744,140729,0,8774,51760,2909,21,167
51760,2086,51774,141035,0,8741,51785,2901,0,173
51785,0,51799,141101,0,8788,51811,2894,0,166
51811,2639,51824,141080,11,8877,51836,2884,30,142
51836,4095,51849,141080,22,8887,51861,2906,32,150
51861,1346,51874,141109,9,8730,51886,2888,68,164
51886,27,51900,141152,1,8699,51916,2892,0,156
51916,4095,51930,141127,0,8772,51946,2876,4,184
51946,39,51960,141281,0,8743,51976,2895,11,171
51976,4095,51990,141406,0,8813,52006,2908,18,193
52006,43,52020,141524,17,8734,52036,2882,18,184
52036,4077,52050,141588,13,8719,52061,2894,0,164
52061,1252,52076,141657,8,8499,52091,2898,15,160
52091,2767,52106,141689,0,8623,52122,2890,0,162
52122,598,52136,141820,0,8526,52152,2892,0,161
52152,3510,52166,141839,7,8719,52182,2885,0,157
52182,583,52196,141790,30,8577,52212,2889,0,178
52212,3530,52226,141815,23,8671,52242,2909,0,176
52242,560,52257,141825,6,8456,52272,2905,0,185
52272,3567,52287,141861,0,8622,52302,2915,13,182
52302,517,52317,141912,0,8576,52332,2908,19,167
52332,3633,52347,141935,3,8749,52362,2912,9,165
52362,491,52377,141332,17,8590,52393,2893,12,175
52393,4095,52408,140159,18,8632,52423,2886,0,157
52423,36,52438,139806,0,8436,52453,2876,0,167
52453,4095,52468,140061,0,8612,52483,2884,0,172
52483,6,52498,140545,0,8566,52513,2893,0,188
52513,4095,52528,140868,14,8719,52543,2895,0,170
52543,0,52558,140965,20,8602,52573,2919,18,159
52573,4095,52589,141048,21,8676,52603,2879,19,161
52603,0,52619,141082,0,8533,52633,2890,14,152
52633,4095,52649,141053,0,8683,52663,2895,15,137
52663,7,52679,141068,12,8649,52694,2889,17,120
52694,4095,52709,141127,11,8760,52724,2885,0,97
52724,0,52739,141224,21,8698,52754,2884,0,98
52754,4095,52770,141340,26,8726,52784,2974,0,118
52784,0,52800,141475,0,8671,52814,2938,0,103
52814,4095,52830,141566,0,8752,52844,2923,0,87
52844,3,52860,141636,0,8795,52874,2888,5,94
52874,4095,52890,141695,19,8843,52904,2887,31,113
52904,21,52920,141727,18,8807,52934,2889,20,108
52934,4095,52951,141737,18,8783,52965,2920,4,119
52965,0,52981,141717,4,8765,52995,2944,0,111
52995,4095,53011,141761,0,8802,53025,2973,0,127
53025,5,53041,141819,0,8843,53055,2974,0,91
53055,4095,53071,141847,15,8860,53085,2959,0,118
53085,16,53101,141881,1,8856,53115,2926,0,119
53115,4095,53127,141907,9,8822,53140,2839,0,120
53140,1437,53152,141836,42,8745,53165,2839,24,130
53165,0,53177,141067,48,8610,53190,2867,15,138
53190,2661,53202,140099,14,8762,53215,2909,19,123
53215,4095,53227,139762,22,8790,53241,2958,3,121
53241,778,53257,140027,30,8692,53271,2940,1,124
53271,3434,53287,140512,19,8798,53301,2959,0,116
53301,688,53313,140815,28,8678,53326,2902,0,134
53326,319,53338,140964,60,8650,53351,2927,0,145
53351,3447,53363,141047,40,8824,53376,2914,8,110
53376,3698,53388,141122,19,8871,53401,2896,0,150
53401,694,53413,141160,15,8783,53426,2874,11,189
53426,429,53438,141119,23,8777,53451,2894,17,213
53451,3595,53463,141055,0,8852,53476,2884,26,195
53476,3696,53489,141059,0,8787,53501,2950,15,201
53501,640,53514,141130,6,8652,53526,2917,11,200
53526,412,53539,141248,0,8749,53552,2926,5,204
53552,4095,53564,141376,12,8886,53577,2925,5,198
53577,3136,53589,141469,9,8906,53602,2951,0,213
53602,165,53614,141571,16,8772,53627,2942,0,211
53627,957,53639,141626,20,8842,53652,2917,0,237
53652,4095,53665,141655,22,8821,53677,2943,3,230
53677,3056,53690,141664,0,8809,53702,2950,11,250
53702,59,53715,141676,0,8698,53727,2946,22,244
53727,924,53740,141682,0,8866,53752,2953,17,238
53752,4095,53765,141692,0,8905,53777,2964,1,224
53777,3002,53790,141631,9,8904,53802,2958,0,230
53802,46,53815,141678,10,8766,53828,2947,0,220
53828,1611,53841,141804,0,8841,53853,2977,23,208
53853,4095,53866,141834,2,8834,53878,2956,62,214
53878,2416,53891,141832,9,8832,53903,2970,69,235
53903,0,53916,141872,0,8774,53928,2976,43,267
53928,1603,53941,141889,0,8905,53953,2980,14,246
53953,4095,53966,141780,28,8925,53978,2973,19,245
53978,2358,53991,141168,21,8825,54003,2974,15,251
54003,0,54017,140264,7,8634,54033,2981,22,222
54033,4095,54047,139874,0,8735,54058,2997,0,185
54058,2315,54072,140217,0,8710,54083,2994,0,257
54083,0,54097,140587,2,8755,54109,2994,0,216
54109,2393,54122,140867,40,8880,54134,2987,24,189
54134,4095,54147,141038,23,8881,54159,2992,53,189
54159,1598,54172,141180,0,8785,54184,2982,61,186
54184,0,54198,141300,4,8721,54214,2980,0,196
54214,4095,54228,141298,0,8785,54244,2985,0,224
54244,0,54258,141251,0,8744,54274,2990,4,205
54274,4095,54288,141159,0,8831,54304,3006,16,205
54304,0,54318,141199,23,8735,54334,2986,17,173
54334,4095,54348,141290,9,8750,54359,2981,0,189
54359,1481,54374,141426,0,8555,54390,2985,11,183
54390,3241,54404,141536,0,8663,54420,2964,0,169
54420,811,54434,141714,0,8530,54450,2961,0,184
54450,3255,54464,141800,0,8718,54480,2958,0,193
54480,784,54494,141764,14,8571,54510,2970,0,205
54510,3284,54524,141766,21,8672,54540,2969,0,203
54540,759,54555,141755,13,8489,54570,2982,7,195
54570,3339,54585,141741,0,8626,54600,2981,15,171
54600,720,54615,141771,0,8538,54630,2981,14,182
54630,3341,54645,141834,0,8754,54660,2975,19,180
54660,688,54675,141878,22,8623,54691,2981,0,166
54691,4095,54705,141923,0,8745,54721,2955,0,163
54721,154,54736,141868,0,8527,54751,2968,0,173
54751,4095,54766,141103,0,8650,54781,2983,0,176
54781,135,54796,140119,0,8508,54811,2969,0,180
54811,4095,54826,139991,1,8678,54841,2983,0,196
54841,107,54856,140402,15,8589,54871,2981,15,188
54871,4095,54886,140882,3,8689,54901,2978,25,195
54901,82,54917,141159,0,8500,54931,2962,2,176
54931,4095,54947,141287,0,8635,54962,2956,15,175
54962,0,54977,141375,3,8601,54992,2959,9,148
54992,4095,55007,141347,9,8740,55022,2955,11,174
55022,0,55037,141230,16,8670,55052,2945,0,147
55052,4095,55067,141171,18,8727,55082,2964,0,181
55082,0,55098,141252,0,8591,55112,3019,0,182
55112,4095,55128,141369,0,8698,55142,2983,2,196
55142,0,55158,141540,0,8713,55172,2975,6,181
55172,4095,55188,141653,11,8810,55202,2954,23,177
55202,31,55218,141731,41,8784,55232,2966,28,155
55232,4095,55249,141773,29,8784,55263,2988,0,164
55263,0,55279,141788,4,8705,55293,3016,0,149
55293,4095,55309,141775,0,8761,55323,3061,4,223
55323,0,55339,141823,0,8824,55353,3041,0,210
55353,4095,55369,141861,11,8849,55383,3048,0,236
55383,23,55399,141851,8,8845,55413,3000,0,222
